250.34,-5.75298
252.57,-12.9204
254.8,0
257.03,-4.93988
259.26,-5.2089062
261.48,5.363628
263.71,0.91816
265.94,-8.72018
268.16,-1.56694
270.39,1.42028
272.61,2.705194
274.84,0.229098
277.06,-0.309344
279.28,-1.2924
281.51,-0.67814
283.73,-0.0400113999999999
285.95,0.5834
288.17,1.84488
290.39,-2.95356
292.61,1.4819524
294.83,-1.713824
297.05,1.35604
299.27,7.57262
301.48,6.614976
303.7,12.0824
305.91,15.5256
308.13,15.42006
310.35,8.3621
312.56,8.408454
314.77,4.84362
316.99,5.38358
319.2,5.89324
321.41,10.4681
323.62,5.889698
325.83,-0.1239778
328.04,2.777518
330.25,0.59044
332.46,-0.83706
334.67,-1.25712
336.88,4.513516
339.08,4.42748
341.29,4.00616
343.5,5.16643
345.7,14.11576
347.91,25.5178
350.11,61.3948
352.31,122.1154
354.52,154.748
356.72,148.68
358.92,100.9694
361.12,63.1072
363.32,45.66
365.52,36.4358
367.72,25.2054
369.92,13.41042
372.12,26.0734
374.32,48.303
376.51,84.8058
378.71,110.863
380.9,90.1202
383.1,57.6208
385.29,26.5206
387.49,17.80512
389.68,7.56996
391.87,2.886956
394.07,1.07152
396.26,-0.93534
398.45,4.08748
400.64,11.45976
402.83,15.92716
405.02,24.532
407.21,35.322
409.39,65.953
411.58,134.07
413.77,357.458
415.95,629.284
418.14,700
420.32,481.678
422.51,246.128
424.69,126.732
426.87,94.0746
429.06,90.6676
431.24,82.157
433.42,61.9896
435.6,33.8574
437.78,16.27036
439.96,5.5727
442.14,-0.1011314
444.31,10.08938
446.49,30.3604
448.67,41.869
450.84,36.467
453.02,21.46374
455.19,5.409044
457.37,2.97772
459.54,-0.67916
461.71,3.98516
463.89,1.82426
466.06,0.85788
468.23,-2.055294
470.4,-4.055096
472.57,-10.94002
474.74,-6.10672
476.91,-4.467118
479.07,-4.73196
481.24,3.533068
483.41,4.0830978
485.57,8.17904
487.74,7.85336
489.9,9.3415
492.07,6.721
494.23,-3.3619
496.4,-0.0111799999999999
498.56,-5.073474
500.72,-8.389778
502.88,-9.49746
505.04,-4.82726
507.2,-6.53984
509.36,-4.84798
511.52,-6.119872
513.68,-4.253038
515.83,-4.729762
517.99,-3.548718
520.14,-3.467504
522.3,-5.71356
524.45,-0.42987
526.61,1.80322
528.76,-4.16062
530.91,5.386342
533.07,7.40702
535.22,5.156338
537.37,11.03404
539.52,6.09688
541.67,4.63422
543.82,5.04284
545.97,5.88284
548.11,5.66614
550.26,-0.80763
552.41,-0.016554
554.55,3.26084
556.7,0.87349
558.84,0.48786
560.98,5.97518
563.13,10.98304
565.27,11.24832
567.41,11.50124
569.55,23.0238
571.69,42.0994
573.83,89.337
575.97,134.344
578.11,151.162
580.25,137.58
582.39,166.49
584.52,280.474
586.66,393.95
588.79,375.972
590.93,251.302
593.06,134.59
595.19,71.5486
597.33,38.1626
599.46,22.5272
601.59,11.78852
603.72,6.648456
605.85,1.22791
607.98,-0.05010568
610.11,6.7078
612.24,-0.218846
614.36,1.92044
616.49,-0.0198900000000002
618.62,0.31178
620.74,1.86934
622.87,5.61552
624.99,-0.5657783
627.11,2.594054
629.24,-3.28822
631.36,-4.74954
633.48,6.58086
635.6,0.6091
637.72,-5.53518
639.84,-0.336006
641.96,0.0909758
644.08,-4.6992
646.2,-10.275
648.31,-7.9641
650.43,-11.05558
652.54,-14.64256
654.66,-8.19394
656.77,-10.19246
658.89,-12.83784
661,-12.34068
663.11,-6.5799
665.22,-8.32002
667.33,-5.911142
669.44,-7.18002
671.55,-2.905872
673.66,-1.952228
675.77,-1.727762
677.88,-3.274158
679.98,10.41682
682.09,17.0378
684.2,25.0942
686.3,30.3724
688.4,39.1038
690.51,48.9732
692.61,56.6866
694.71,61.769
696.81,69.1782
698.92,71.94
701.02,79.8646
703.11,85.6054
705.21,88.0528
707.31,93.3824
709.41,98.8914
711.51,103.4398
713.6,97.432
715.7,90.7002
717.79,80.8032
719.89,73.7206
721.98,59.8122
724.07,47.521
726.16,40.191
728.25,39.893
730.35,36.7552
732.44,39.3502
734.52,50.1454
736.61,50.8636
738.7,66.8688
740.79,91.783
742.87,120.812
744.96,160.022
747.05,208.8
749.13,243.478
751.21,246.27
753.3,212.898
755.38,160.636
757.46,116.658
759.54,84.1018
761.62,57.7558
763.7,38.7238
765.78,24.7526
767.86,16.91542
769.94,10.00372
772.01,2.507512
774.09,-0.29956
776.17,0.8464
778.24,-5.865888
780.32,-1.80722
782.39,0.6585718
784.46,2.001898
786.53,6.061452
788.61,6.5461
790.68,11.11336
792.75,8.131064
794.82,7.0272
796.89,8.231168
798.95,4.494388
801.02,5.586274
803.09,5.837574
805.15,12.35572
807.22,15.26126
809.28,23.2946
811.35,46.407
813.41,73.4908
815.47,72.3516
817.53,49.541
819.6,27.025
821.66,14.8352
823.72,8.14448
825.78,1.59188
827.83,7.15394
829.89,4.565618
831.95,6.89332
834,5.74816
836.06,5.230146
838.12,3.63542
840.17,9.66258
842.22,7.41936
844.28,3.52278
846.33,5.36594
848.38,5.466242
850.43,6.718584
852.48,5.02672
854.53,4.99588
856.58,10.54988
858.63,8.46914
860.67,10.2557
862.72,6.26066
864.77,4.96092
866.81,5.834602
868.86,1.053606
870.9,1.49924
872.94,2.081008
874.98,-0.572186
877.03,-1.576074
879.07,-0.343218
881.11,0.2184
883.15,-1.136636
885.19,4.230906
887.22,2.509206
889.26,0.46656
891.3,2.04288
893.33,-1.360702
895.37,-6.7587
897.4,-5.98418
899.44,0
901.47,0.7245
903.5,-5.0721
905.54,1.4407
907.57,-0.333038
909.6,0.631316
911.63,-1.408526
913.66,-5.9272
915.68,-1.389792
917.71,-1.32436
919.74,-3.39134
921.76,-1.79835
923.79,-8.56416
925.82,-0.02018
927.84,2.4972
929.86,1.364811
931.89,4.0172
933.91,9.33124
935.93,5.86202
937.95,5.74214
939.97,3.66242
941.99,6.092996
944.01,6.17573
946.02,3.97738
948.04,5.3381
950.06,2.18252
952.07,0.93386
954.09,4.22816
956.1,8.62406
958.12,9.00432
960.13,8.91846
962.14,7.25112
964.15,5.28564
966.16,1.13814
968.17,0.671346
970.18,-0.0712546
972.19,1.2643
974.2,4.35652
976.2,5.20314
978.21,6.91924
980.22,9.52172
982.22,6.968218
984.22,6.73382
986.23,11.98468
988.23,8.58738
990.23,11.1391
992.23,10.496888
994.24,10.75054
996.23,9.72312
998.23,10.6801
1000.2,12.688302
1002.2,13.1393
1004.2,16.322
1006.2,17.3036
1008.2,20.9418
1010.2,16.2966
1012.2,19.2552
1014.2,24.479
1016.2,24.597
1018.2,20.6056
1020.2,23.149
1022.2,24.4518
1024.2,27.3038
1026.1,28.85
1028.1,33.833
1030.1,47.0798
1032.1,64.4036
1034.1,83.6342
1036.1,78.8958
1038.1,59.3062
1040.1,48.2646
1042,41.1776
1044,44.6224
1046,39.9302
1048,41.1078
1050,40.5538
1051.9,43.3364
1053.9,44.6812
1055.9,41.1874
1057.9,35.8666
1059.9,33.8298
1061.8,35.3328
1063.8,32.024
1065.8,28.8912
1067.8,28.6564
1069.7,24.492
1071.7,27.7418
1073.7,25.5972
1075.6,20.7992
1077.6,19.6968
1079.6,16.9506
1081.5,14.1338
1083.5,12.6463
1085.5,8.63218
1087.5,9.86162
1089.4,5.34422
1091.4,4.41136
1093.3,3.055152
1095.3,5.027152
1097.3,2.27244
1099.2,6.86344
1101.2,1.66014
1103.2,2.48656
1105.1,2.135796
1107.1,-1.81594
1109,0.88942
1111,-1.7501
1113,1.186766
1114.9,-3.17798
1116.9,-2.263926
1118.8,-3.14981
1120.8,6.52014
1122.7,5.488618
1124.7,9.11884
1126.6,4.466812
1128.6,6.47524
1130.5,9.92394
1132.5,2.475196
1134.4,3.45718
1136.4,4.41608
1138.3,10.35094
1140.3,12.74962
1142.2,9.73852
1144.2,14.84202
1146.1,15.6942
1148.1,16.9312
1150,21.3354
1151.9,22.2176
1153.9,20.3054
1155.8,20.202
1157.8,18.9056
1159.7,21.46
1161.6,25.5446
1163.6,29.4282
1165.5,32.65
1167.5,35.3518
1169.4,37.7498
1171.3,42.2614
1173.3,45.5544
1175.2,48.2962
1177.1,53.5904
1179.1,57.3712
1181,57.6402
1182.9,61.7982
1184.9,65.3248
1186.8,77.6212
1188.7,84.3036
1190.6,90.3
1192.6,99.1458
1194.5,105.3
1196.4,111.842
1198.4,114.984
1200.3,124.268
1202.2,127.444
1204.1,135.954
1206,140.71
1208,144.694
1209.9,152.18
1211.8,158.838
1213.7,159.24
1215.6,164.698
1217.6,166.522
1219.5,167.488
1221.4,163.138
1223.3,162.724
1225.2,156.708
1227.1,152.212
1229.1,149.626
1231,144.166
1232.9,141.254
1234.8,135.888
1236.7,130.404
1238.6,126.082
1240.5,121.556
1242.4,117.136
1244.3,115.238
1246.2,115.008
1248.1,111.652
1250.1,108.64
1252,103.429
1253.9,103.0598
1255.8,102.23
1257.7,105.5354
1259.6,110.144
1261.5,112.478
1263.4,116.288
1265.3,125.008
1267.2,134.966
1269.1,142.766
1271,153.602
1272.9,160.128
1274.8,161.622
1276.6,161.868
1278.5,153.004
1280.4,143.906
1282.3,138.572
1284.2,128.202
1286.1,117.508
1288,104.19
1289.9,90.6216
1291.8,78.8036
1293.7,75.3412
1295.6,69.54
1297.4,67.7466
1299.3,63.018
1301.2,61.0754
1303.1,62.0312
1305,57.0392
1306.9,56.9302
1308.7,57.532
1310.6,52.9472
1312.5,49.9398
1314.4,52.2814
1316.3,51.3442
1318.1,51.1506
1320,50.4382
1321.9,49.0264
1323.8,52.5334
1325.7,54.586
1327.5,56.6276
1329.4,52.8102
1331.3,55.4614
1333.1,58.2016
1335,55.4386
1336.9,59.8412
1338.8,61.3444
1340.6,65.1844
1342.5,71.1888
1344.4,78.2174
1346.2,87.0644
1348.1,97.6052
1350,102.2344
1351.8,107.314
1353.7,108.43
1355.6,108.352
1357.4,109.314
1359.3,111.332
1361.1,115.058
1363,122.41
1364.9,133.476
1366.7,146.736
1368.6,166.57
1370.4,192.084
1372.3,221.764
1374.2,264.062
1376,315.198
1377.9,389.752
1379.7,458.754
1381.6,520.494
1383.4,532.662
1385.3,507.91
1387.1,451.57
1389,392.062
1390.8,338.322
1392.7,296.808
1394.5,284.852
1396.4,279.346
1398.2,286.192
1400.1,279.706
1401.9,264.97
1403.8,242.402
1405.6,210.916
1407.4,180.958
1409.3,154.24
1411.1,124.412
1413,105.5158
1414.8,92.5254
1416.6,83.116
1418.5,67.4284
1420.3,58.8422
1422.2,51.234
1424,46.7026
1425.8,41.0094
1427.7,34.412
1429.5,27.593
1431.3,27.37
1433.2,21.526
1435,17.33814
1436.8,16.3928
1438.7,16.71782
1440.5,14.5166
1442.3,9.48634
1444.1,7.83922
1446,7.15482
1447.8,5.431458
1449.6,7.84088
1451.4,-0.298942
1453.3,1.111226
1455.1,1.1096862
1456.9,-0.6170562
1458.7,1.874552
1460.6,-2.77524
1462.4,1.36344
1464.2,-5.544548
1466,-5.0739996
1467.8,-5.12092
1469.6,-7.00884
1471.5,-5.5158
1473.3,-10.19056
1475.1,-9.90524
1476.9,-7.75932
1478.7,-8.79256
1480.5,-5.550034
1482.4,-4.942622
1484.2,-6.285786
1486,-5.77368
1487.8,-5.03642
1489.6,-10.03128
1491.4,-5.3136102
1493.2,-6.7552
1495,-9.45208
1496.8,-4.868506
1498.6,-6.0891
1500.4,-3.2613
1502.2,-7.83702
1504,-7.171148
1505.8,-6.71728
1507.6,-5.10242
1509.4,-3.679252
1511.2,-3.44127
1513,-2.33838
1514.8,-5.75978
1516.6,-4.7516
1518.4,-6.0203
1520.2,-5.11138
1522,-6.38104
1523.8,-4.43544
1525.6,-3.05814
1527.4,-1.2065172
1529.2,-3.868104
1531,-2.95386
1532.8,-1.503246
1534.6,-3.05252
1536.4,0.335548
1538.2,-0.18088
1539.9,2.19507
1541.7,4.23306
1543.5,7.91188
1545.3,6.20896
1547.1,9.65258
1548.9,16.2658
1550.7,21.8324
1552.4,26.843
1554.2,36.533
1556,41.1676
1557.8,38.192
1559.6,32.7248
1561.3,30.6116
1563.1,32.9086
1564.9,39.7136
1566.7,42.2078
1568.4,47.0364
1570.2,52.4328
1572,59.529
1573.8,62.9148
1575.5,66.4844
1577.3,74.9676
1579.1,75.33
1580.9,81.862
1582.6,88.0364
1584.4,98.346
1586.2,103.9064
1587.9,110.988
1589.7,116.638
1591.5,124.344
1593.2,131.322
1595,136.994
1596.8,143.618
1598.5,154.072
1600.3,166.066
1602,172.824
1603.8,178.82
1605.6,193.804
1607.3,202.17
1609.1,211.51
1610.8,218.296
1612.6,228.132
1614.4,234.63
1616.1,243.074
1617.9,254.962
1619.6,263.152
1621.4,265.09
1623.1,276.63
1624.9,284.236
1626.6,288.872
1628.4,296.602
1630.1,304.214
1631.9,307.218
1633.6,311.064
1635.4,314.07
1637.1,318.652
1638.9,322.738
1640.6,320.402
1642.4,322.682
1644.1,323.87
1645.8,325.544
1647.6,328.822
1649.3,329.85
1651.1,326.008
1652.8,324.826
1654.6,323.682
1656.3,316.512
1658,317.52
1659.8,315.828
1661.5,312.864
1663.2,309.164
1665,304.794
1666.7,301.378
1668.4,300.044
1670.2,300.132
1671.9,294.7
1673.6,292.57
1675.4,286.422
1677.1,288.512
1678.8,290.046
1680.5,286.418
1682.3,280.74
1684,280.232
1685.7,286.71
1687.5,290.7
1689.2,292.342
1690.9,296.986
1692.6,300.188
1694.3,305.838
1696.1,309.008
1697.8,311.07
1699.5,314.698
1701.2,322.76
1702.9,333.324
1704.7,335.172
1706.4,342.282
1708.1,345.084
1709.8,345.838
1711.5,351.064
1713.2,350.924
1714.9,350.538
1716.7,342.49
1718.4,344.216
1720.1,335.464
1721.8,332.442
1723.5,323.942
1725.2,313.804
1726.9,307.678
1728.6,301.15
1730.3,291.794
1732,278.876
1733.7,266.244
1735.4,254.478
1737.1,238.378
1738.8,222.784
1740.6,204.886
1742.3,185.888
1744,168
1745.7,152.228
1747.3,134.868
1749,118.38
1750.7,108.728
1752.4,96.0904
1754.1,82.8988
1755.8,74.6898
1757.5,63.7244
1759.2,56.7042
1760.9,50.5466
1762.6,40.4074
1764.3,37.3254
1766,30.8022
1767.7,31.7352
1769.4,25.4118
1771.1,20.812
1772.7,19.0878
1774.4,20.4816
1776.1,20.2658
1777.8,12.4568
1779.5,11.86217
1781.2,11.93828
1782.8,6.66496
1784.5,7.07974
1786.2,5.22774
1787.9,3.7259262
1789.6,2.14018
1791.2,0.36932
1792.9,1.44682
1794.6,-0.290557
1796.3,0.381092
1798,-1.262712
1799.6,-1.521404
1801.3,-2.37874
1803,-3.411394
1804.7,-1.215982
1806.3,-2.341706
1808,-1.458582
1809.7,-3.05402
1811.3,-2.07768
1813,-1.2179
1814.7,-5.33382
1816.3,1.38962
1818,-1.8975376
1819.7,-1.79972
1821.3,-2.38194
1823,-3.28295
1824.7,-3.46718
1826.3,-1.324342
1828,-3.13766
1829.7,0.8714252
1831.3,-0.286896
1833,-0.045388
1834.6,1.65096
1836.3,-3.40938
1838,-1.89656
1839.6,-2.854466
1841.3,-0.3481578
1842.9,0.23933
1844.6,0.26114
1846.2,1.43664
1847.9,-0.593002
1849.5,-2.08676
1851.2,-1.0433
1852.8,1.137308
1854.5,1.85504
1856.1,1.54188
1857.8,1.803952
1859.4,2.639281
1861.1,-1.852224
1862.7,-1.818974
1864.4,-1.53258
1866,2.306854
1867.7,0.924806
1869.3,0.1231564
1871,-1.447822
1872.6,2.25818
1874.2,2.17778
1875.9,0.6835386
1877.5,-0.7732
1879.2,0
1880.8,0.603018
1882.4,-5.94888
1884.1,0.0838800000000003
1885.7,-3.04982
1887.3,-1.42191
1889,-4.43512
1890.6,-1.3035692
1892.2,-2.75556
1893.9,-2.162246
1895.5,-4.249
1897.1,-3.37866
1898.8,-0.328976
1900.4,3.36694
1902,-0.59665508
1903.7,-0.0853154
1905.3,-2.38624
1906.9,-2.039378
1908.5,-1.46304
1910.2,-3.26798
1911.8,-1.38658
1913.4,-2.77936
1915,-1.246216
1916.7,0.043076
1918.3,-0.77002
1919.9,-0.841802
1921.5,-1.865504
1923.1,-3.126464
1924.8,-0.585766
1926.4,2.524814
1928,1.8454
1929.6,0.298512
1931.2,3.21252
1932.8,-1.59386
1934.4,1.3775
1936.1,3.23317
1937.7,-0.8801
1939.3,1.89012
1940.9,2.410012
1942.5,2.574486
1944.1,-0.18256
1945.7,-2.151504
1947.3,0.84802
1948.9,2.997426
1950.5,-0.0430400000000001
1952.1,0.0017232
1953.8,1.414222
1955.4,2.652136
1957,2.08582
1958.6,2.4953
1960.2,0.81286
1961.8,1.130756
1963.4,1.598886
1965,1.85326
1966.6,2.35606
1968.2,2.211524
1969.8,4.201558
1971.4,6.19776
1973,2.25167
1974.5,1.887814
1976.1,3.764608
1977.7,2.29232
1979.3,3.1044068
1980.9,-0.1138
1982.5,0.1339
1984.1,-0.113716
1985.7,3.41736
1987.3,4.77331
1988.9,0.0456
1990.5,3.46812
1992,3.051468
1993.6,5.2656608
1995.2,3.5976094
1996.8,2.12755
1998.4,1.96296
2000,2.53144
2001.6,1.992954
2003.1,5.108014
2004.7,6.04948
2006.3,4.594732
2007.9,-2.00168
2009.5,5.744148
2011,5.63046
2012.6,4.8914
2014.2,1.962914
2015.8,2.31534
2017.3,3.64782
2018.9,-0.556288
2020.5,2.95874
2022.1,6.1733434
2023.6,5.22738
2025.2,6.31046
2026.8,5.8459
2028.3,2.84002
2029.9,4.13944
2031.5,0.21163
2033,5.21884
2034.6,5.692662
2036.2,4.08574
2037.7,7.01744
2039.3,5.236656
2040.9,5.3607
2042.4,4.204498
2044,5.88368
2045.6,4.05526
2047.1,4.63872
2048.7,4.7319
2050.2,0.1635674
2051.8,4.23992
2053.4,6.9053
2054.9,5.93514
2056.5,1.47792
2058,3.120264
2059.6,1.349644
2061.1,3.527218
2062.7,4.40584
2064.2,3.04926
2065.8,3.10592
2067.3,3.9818
2068.9,2.71124
2070.4,3.778772
2072,-0.041704
2073.5,-0.15134
2075.1,2.76842
2076.6,1.67606
2078.2,-1.3756
2079.7,0.6386
2081.3,2.328634
2082.8,1.3620206
2084.4,6.57466
2085.9,5.037122
2087.4,3.32578
2089,6.52206
2090.5,4.79928
2092.1,4.421576
2093.6,4.678472
2095.1,6.41398
2096.7,5.55338
2098.2,4.562616
2099.7,7.13112
2101.3,4.830094
2102.8,4.044254
2104.3,8.50138
2105.9,5.02546
2107.4,8.00074
2108.9,5.7215
2110.5,4.49168
2112,6.85714
2113.5,5.64362
2115.1,5.64586
2116.6,5.7012
2118.1,7.53434
2119.6,7.44146
2121.2,8.79426
2122.7,7.51028
2124.2,6.00937
2125.7,7.62234
2127.3,8.60932
2128.8,10.21544
2130.3,14.49436
2131.8,23.1488
2133.3,35.5672
2134.9,56.6488
2136.4,81.8384
2137.9,94.5566
2139.4,99.0032
2140.9,92.24
2142.4,74.3114
2144,53.5032
2145.5,33.3114
2147,22.5546
2148.5,19.7438
2150,12.7095
2151.5,9.74276
2153,8.18806
2154.5,5.73878
2156,2.429216
2157.6,2.6826
2159.1,3.46042
2160.6,-1.981184
2162.1,2.302084
2163.6,2.698596
2165.1,-2.25967
2166.6,0.953914
2168.1,-0.905914
2169.6,-5.68642
2171.1,2.037712
2172.6,0.491186
2174.1,2.21686
2175.6,2.327922
2177.1,-2.862872
2178.6,-3.85534
2180.1,0.43916
2181.6,-1.09542
2183.1,-2.179538
2184.6,-0.757886
2186.1,-2.642253
2187.5,-1.482952
2189,-2.133834
2190.5,2.36574
2192,-0.995494
2193.5,2.2676
2195,1.4889108
2196.5,-0.404574
2198,-1.22572
2199.5,-2.9529304
2201,-4.324414
2202.4,0.4953592
2203.9,-1.1206246
2205.4,-4.3805
2206.9,-3.39244
2208.4,1.3955952
2209.9,-2.3455404
2211.3,-4.36506
2212.8,-3.284058
2214.3,-2.677604
2215.8,-4.271476
2217.3,-0.850156
2218.7,-0.722812
2220.2,-2.050702
2221.7,-0.640812
2223.2,-0.77946
2224.6,-0.00159320000000012
2226.1,-1.876074
2227.6,-1.870092
2229.1,-3.265872
2230.5,-1.54634
2232,-0.341842
2233.5,-2.46126
2234.9,-1.841682
2236.4,1.00929
2237.9,-1.765698
2239.3,-1.983404
2240.8,1.7985956
2242.3,-1.790746
2243.7,-1.65902
2245.2,-0.813612
2246.7,-0.84308
2248.1,-0.61927
2249.6,-1.88736
2251.1,-0.312106
2252.5,-1.453548
2254,-2.81228
2255.4,-1.21722
2256.9,-0.455212
2258.3,-2.064652
2259.8,1.133858
2261.3,-1.987224
2262.7,1.253532
2264.2,-0.98364
2265.6,-1.10546
2267.1,0.336342
2268.5,-2.148106
2270,0.23506
2271.4,-3.5489
2272.9,3.631528
2274.3,0
2275.8,0.85945
2277.2,-2.03566
2278.7,0.953906
2280.1,-2.195834
2281.6,-0.048822
2283,0.402324
2284.5,-0.301814
2285.9,0.98622
2287.4,-0.68273
2288.8,0.92954
2290.2,1.230558
2291.7,0.216606
2293.1,1.171034
2294.6,-0.221918
2296,-1.0944816
2297.4,1.173282
2298.9,0.5325714
2300.3,1.626622
2301.7,1.745408
2303.2,0.73314
2304.6,1.6786972
2306,3.29236
2307.5,0.0823220000000001
2308.9,2.015122
2310.3,-0.973648
2311.8,0.36722
2313.2,-0.657428
2314.6,1.0164
2316.1,1.4160586
2317.5,0.156194
2318.9,2.800644
2320.3,2.48804
2321.8,4.2314
2323.2,5.8622
2324.6,9.9139
2326,16.3704
2327.5,23.5972
2328.9,29.0052
2330.3,30.6164
2331.7,22.4356
2333.2,16.1004
2334.6,11.53104
2336,7.27378
2337.4,5.668552
2338.8,2.457808
2340.2,-0.255436
2341.7,3.595592
2343.1,3.38184
2344.5,3.314128
2345.9,2.124042
2347.3,-2.35378
2348.7,3.013074
2350.1,1.66366
2351.6,1.203936
2353,0.617854
2354.4,1.292104
2355.8,0.388806
2357.2,-1.18666
2358.6,-3.25068
2360,1.38538
2361.4,1.276184
2362.8,1.31152
2364.2,3.41934
2365.6,-1.320054
2367,3.263996
2368.4,4.59915
2369.8,0.51692
2371.2,5.17376
2372.6,0.96692
2374,3.179754
2375.4,2.713678
2376.8,1.7477714
2378.2,1.6171014
2379.6,3.38708
2381,2.901116
2382.4,5.85726
2383.8,2.815002
2385.2,1.92558
2386.6,0.41465
2388,0.609874
2389.4,0.52864
2390.8,0.47588
2392.1,-0.74606
2393.5,0.649414
2394.9,1.6186
2396.3,0.3834836
2397.7,1.42732
2399.1,0.124478
2400.5,1.379378
2401.9,0.0778799999999998
2403.2,0.47692
2404.6,0.6243
2406,-0.84582
2407.4,1.41464
2408.8,2.90388
2410.2,0.64836
2411.5,0.506824
2412.9,-1.37734
2414.3,2.11272
2415.7,0
2417,0.46722
2418.4,1.4600972
2419.8,2.13492462
2421.2,0.631012
2422.5,0.659924
2423.9,3.044898
2425.3,0.484316
2426.7,1.018332
2428,-0.391234
2429.4,0.559034
2430.8,-2.1086536
2432.1,0.0670520000000001
2433.5,1.860568
2434.9,0.64644
2436.2,-0.89221
2437.6,1.88522
2439,-2.18158
2440.3,1.065812
2441.7,1.4613926
2443.1,-1.29757
2444.4,0.955686
2445.8,-2.726404
2447.2,0.05348
2448.5,0.44286
2449.9,-0.649028
2451.2,-0.19466
2452.6,-0.38018
2454,1.7632
2455.3,1.039882
2456.7,1.810328
2458,-0.82883
2459.4,-0.385438
2460.7,-4.8448
2462.1,1.3628976
2463.4,-0.898492
2464.8,-0.01693
2466.1,1.4314158
2467.5,1.312368
2468.8,-0.96658
2470.2,1.2353278
2471.5,-0.850362
2472.9,-2.797662
2474.2,-1.86972
2475.6,-0.834374
2476.9,1.3465294
2478.3,0.886216
2479.6,-0.612588
2481,-2.69252
2482.3,-1.06036
2483.6,-2.73046
2485,0.84788
2486.3,-0.293918
2487.7,0.49846
2489,1.05918
2490.3,1.9784782
2491.7,-0.478602
2493,-1.47044
2494.4,-1.428702
2495.7,-0.18988
2497,0.511888
2498.4,-0.49722
2499.7,0.19848
2501,0.979646
2502.4,-0.563172
2503.7,-0.6062
2505,-1.320194
2506.4,-1.671424
2507.7,-1.79584
2509,-1.327698
2510.3,0.01982
2511.7,-1.3166796
2513,-2.769388
2514.3,-0.333052
2515.6,-0.166008
2517,0.074672
2518.3,0.67782
2519.6,-3.20194
2520.9,0
2522.3,-0.857374
2523.6,-2.0216
2524.9,-0.84454
2526.2,0.916428
2527.5,-1.6364
2528.9,-1.93982
2530.2,-2.62824
2531.5,1.10789
2532.8,0.54746
2534.1,1.2251
2535.4,-0.216016
2536.8,-0.033172
2538.1,0.46785
2539.4,-1.155652
2540.7,-2.81424
2542,-0.120696
2543.3,0.874356
2544.6,-2.5867312
2545.9,-0.820058
2547.2,-0.352956
2548.6,-1.38836
2549.9,1.76352
2551.2,0.035888
2552.5,-1.16831
2553.8,2.978566
2555.1,1.5475074
2556.4,1.31093
2557.7,-0.335536
2559,-0.436822
2560.3,1.012818
2561.6,-1.05919
2562.9,0.5009
2564.2,1.454604
2565.5,-0.1532666
2566.8,1.5462
2568.1,2.437608
2569.4,3.3677
2570.7,1.436444
2572,2.779326
2573.3,1.5058128
2574.6,1.4495
2575.9,1.778785
2577.1,1.864282
2578.4,0.6449416
2579.7,2.093566
2581,1.800988
2582.3,0.640086
2583.6,1.740616
2584.9,2.182048
2586.2,0.1906144
2587.5,1.4417474
2588.7,2.61143348
2590,0.84523
2591.3,2.542914
2592.6,2.111236
2593.9,3.226374
2595.2,0.267352
2596.4,0.87226
2597.7,-0.582404
2599,0.394174
2600.3,3.86546
2601.6,3.197008
2602.8,0.954754
2604.1,1.81776
2605.4,1.5408614
2606.7,1.936404
2608,2.17746
2609.2,0.12247
2610.5,1.061098
2611.8,0.457274
2613,-0.77504
2614.3,2.334638
2615.6,1.565034
2616.9,3.01684
2618.1,0.89925424
2619.4,-0.665766
2620.7,2.88306
2621.9,0.93578
2623.2,0.581122256
2624.5,0.245598
2625.7,-1.3644408
2627,-1.14538
2628.3,-0.52101
2629.5,0
2630.8,1.191998
2632.1,1.16456
2633.3,1.11424
2634.6,0.451058
2635.8,-2.00288
2637.1,-0.603056
2638.4,-3.66654
2639.6,-0.204272
2640.9,-3.42454
2642.1,-1.44858
2643.4,-2.96996
2644.6,-1.7291382
2645.9,-0.782404
2647.2,-3.20068
2648.4,0.153784
2649.7,-0.90725
2650.9,-4.64248
2652.2,-3.6031
2653.4,-2.59968
2654.7,-1.81582
2655.9,-1.398332
2657.2,-1.933775
2658.4,-1.14232
2659.7,-0.2175524
2660.9,-2.15544
2662.2,-2.110752
2663.4,-3.2091064
2664.6,-5.28206
2665.9,-0.235912
2667.1,-2.30452
2668.4,-2.5146691
2669.6,-1.816712
2670.9,-1.504354
2672.1,-2.3393
2673.3,-4.36432
2674.6,-4.22096
2675.8,-2.913644
2677.1,-1.08732
2678.3,-1.492166
2679.5,-3.345956
2680.8,-2.44925
2682,-1.834578
2683.2,-1.83674
2684.5,-3.9446856
2685.7,-1.664366
2686.9,-2.61128
2688.2,0.197596
2689.4,-0.66968
2690.6,-1.864514
2691.9,-4.52323
2693.1,-5.52228
2694.3,-3.14766
2695.5,-0.57604
2696.8,-2.368734
2698,-1.6305
2699.2,-1.7311
2700.4,-3.14508
2701.7,-4.55562
2702.9,-3.929798
2704.1,-2.27622
2705.3,-2.0451068
2706.6,-1.565226
2707.8,-2.6714398
2709,-3.248198
2710.2,-1.49407
2711.4,-4.254908
2712.6,1.1838
2713.9,-1.8667708
2715.1,-1.2530492
2716.3,-2.617492
2717.5,-1.355006
2718.7,-2.1120528
2719.9,-2.595688
2721.2,0.00358799999999988
2722.4,-2.486298
2723.6,-1.90297
2724.8,-1.215408
2726,0
2727.2,-3.0618
2728.4,-2.967316
2729.6,-1.3549
2730.8,-1.09078
2732,-0.1352
2733.3,-1.561616
2734.5,-0.92992
2735.7,-3.221422
2736.9,0.37854
2738.1,-1.52162
2739.3,-2.28686
2740.5,1.41302
2741.7,-1.7705688
2742.9,-2.37412
2744.1,-0.0771879999999999
2745.3,-2.534814
2746.5,-2.58352
2747.7,-0.76305
2748.9,-1.1457
2750.1,-0.30596
2751.3,0.36422
2752.5,-1.6183484
2753.7,-4.591412
2754.9,-1.645148
2756,-0.983882
2757.2,0.1165272
2758.4,-0.00676200000000016
2759.6,-2.50641
2760.8,-1.148366
2762,-2.61034
2763.2,-1.28526
2764.4,-0.06838
2765.6,0.405616
2766.8,-1.816448
2767.9,0.623006
2769.1,0.693286
2770.3,4.57174
2771.5,1.25222
2772.7,1.542334
2773.9,2.14948
2775.1,-0.03216
2776.2,1.60864
2777.4,-1.11066
2778.6,-1.898124
2779.8,2.8292156
2781,1.32238
2782.1,-0.15398
2783.3,0.306796
2784.5,1.077778
2785.7,-0.729716
2786.8,-0.561026
2788,0.81431
2789.2,0.7871
2790.4,1.413234
2791.5,-0.753624
2792.7,-1.225166
2793.9,2.219506
2795.1,0.461054
2796.2,0.121042
2797.4,-0.78676
2798.6,-2.353674
2799.7,-0.540044
2800.9,-1.0929
2802.1,-0.437286
2803.2,-2.235768
2804.4,-0.42726
2805.6,2.30262
2806.7,-1.75534
2807.9,-3.77516
2809.1,-2.154536
2810.2,-1.99505
2811.4,-1.015654
2812.6,-1.36316
2813.7,-3.486768
2814.9,-0.242247
2816,-1.337714
2817.2,-0.518636
2818.4,0
2819.5,-2.547496
2820.7,-1.52174
2821.8,1.1739
2823,-0.210986
2824.1,-1.31821
2825.3,-1.192358
2826.4,0.256756
2827.6,1.92508
2828.7,1.984422
2829.9,0.759564
2831,-0.2798052
2832.2,0.27174
2833.3,-0.2976
2834.5,-2.8711034
2835.6,-2.01624
2836.8,-2.369202
2837.9,-3.9673
2839.1,-1.145955
2840.2,-2.59992
2841.4,-2.446378
2842.5,-1.45487
2843.7,-1.04316
2844.8,-3.007866
2845.9,-1.643144
2847.1,-2.432654
2848.2,-3.8786518
2849.4,-5.15726
2850.5,-2.01956
2851.7,-3.91876
2852.8,-2.27584
2853.9,-0.00513999999999992
2855.1,-1.93528
2856.2,-1.244308
2857.3,-3.88398
2858.5,-2.93112
2859.6,-0.92441
2860.7,-2.3206484
2861.9,-2.18176
2863,-1.8816418
2864.1,-2.080192
2865.3,-1.850604
2866.4,-5.7569
2867.5,-3.139938
2868.7,-2.34576
2869.8,-2.24594
2870.9,-1.047266
2872,-0.445492
2873.2,-1.220082
2874.3,-1.094898
2875.4,-0.907682
2876.5,0.52584
2877.7,-0.206588
2878.8,-1.64439
2879.9,0.314958
2881,-0.296608
2882.2,3.578322
2883.3,-0.683302
2884.4,2.274504
2885.5,0.26255
2886.6,3.3161
2887.8,1.354238
2888.9,1.7665016
2890,6.89156
2891.1,6.21837
2892.2,6.76548
2893.3,6.20986
2894.4,8.73588
2895.6,7.20476
2896.7,9.65344
2897.8,10.18506
2898.9,9.0952
2900,11.50484
2901.1,11.72788
2902.2,13.12434
2903.3,13.68098
2904.4,15.4126
2905.6,14.96678
2906.7,19.5712
2907.8,18.0758
2908.9,20.3274
2910,19.9182
2911.1,22.7812
2912.2,25.8756
2913.3,28.5362
2914.4,25.0874
2915.5,30.6642
2916.6,30.4698
2917.7,33.229
2918.8,33.905
2919.9,34.1598
2921,38.6322
2922.1,36.8236
2923.2,39.8338
2924.3,37.9822
2925.4,40.7402
2926.5,46.4686
2927.6,42.7386
2928.7,46.4498
2929.8,49.001
2930.8,48.8612
2931.9,51.3296
2933,54.755
2934.1,54.3728
2935.2,57.0922
2936.3,57.521
2937.4,56.8394
2938.5,61.9772
2939.6,56.997
2940.6,58.9244
2941.7,60.6636
2942.8,59.849
2943.9,61.4466
2945,59.242
2946.1,58.162
2947.2,60.112
2948.2,63.4396
2949.3,63.3824
2950.4,59.1744
2951.5,58.1362
2952.6,57.011
2953.6,53.437
2954.7,54.0094
2955.8,52.0924
2956.9,51.5158
2957.9,48.0248
2959,47.603
2960.1,42.7418
2961.2,41.837
2962.2,39.8158
2963.3,40.25
2964.4,38.5522
2965.5,38.2462
2966.5,35.3826
2967.6,33.4366
2968.7,30.1474
2969.7,25.6054
2970.8,31.5252
2971.9,28.0254
2973,25.665
2974,24.6644
2975.1,24.162
2976.2,24.2888
2977.2,25.8396
2978.3,22.9878
2979.3,22.552
2980.4,23.3464
2981.5,23.3148
2982.5,21.1744
2983.6,22.45
2984.7,22.4834
2985.7,20.886
2986.8,19.52
2987.8,23.0054
2988.9,22.8066
2989.9,23.6254
2991,23.2698
2992.1,21.9886
2993.1,22.4648
2994.2,25.3978
2995.2,23.6484
2996.3,24.1922
2997.3,24.4712
2998.4,24.7568
2999.4,22.8918
3000.5,25.323
3001.5,25.9064
3002.6,27.2744
3003.6,25.5864
3004.7,26.6364
3005.7,27.985
3006.8,30.4936
3007.8,29.7538
3008.9,29.8332
3009.9,30.1656
3011,34.5142
3012,31.875
3013,35.4986
3014.1,34.1324
3015.1,35.4494
3016.2,34.1794
3017.2,37.4762
3018.2,37.463
3019.3,36.0944
3020.3,39.092
3021.4,39.6528
3022.4,39.181
3023.4,40.4866
3024.5,38.8832
3025.5,43.9208
3026.5,43.6906
3027.6,47.5392
3028.6,46.7964
3029.6,46.3584
3030.7,48.8012
3031.7,48.2158
3032.7,50.0594
3033.8,51.228
3034.8,52.2018
3035.8,51.6186
3036.9,57.1878
3037.9,55.194
3038.9,54.9694
3039.9,57.6282
3041,59.6934
3042,60.2046
3043,58.6876
3044,62.0656
3045.1,60.742
3046.1,63.9948
3047.1,63.3668
3048.1,64.9146
3049.2,66.432
3050.2,67.7064
3051.2,70.9194
3052.2,70.5636
3053.2,69.6798
3054.3,73.2806
3055.3,73.8254
3056.3,77.0732
3057.3,76.1366
3058.3,80.2962
3059.3,80.7342
3060.3,80.1728
3061.4,82.396
3062.4,82.9964
3063.4,84.2078
3064.4,85.91
3065.4,88.7264
3066.4,88.4258
3067.4,91.2152
3068.4,91.0634
3069.5,90.9486
3070.5,93.3098
3071.5,96.803
3072.5,97.193
3073.5,99.1792
3074.5,96.7104
3075.5,97.2898
3076.5,102.3042
3077.5,102.4186
3078.5,105.312
3079.5,108.626
3080.5,111.526
3081.5,112.772
3082.5,110.418
3083.5,113.614
3084.5,118.168
3085.5,113.79
3086.5,118.498
3087.5,119.37
3088.5,118.84
3089.5,121.954
3090.5,120.624
3091.5,125.184
3092.5,124.966
3093.5,126.932
3094.5,131.072
3095.5,129.816
3096.4,134.184
3097.4,133.934
3098.4,131.834
3099.4,138.014
3100.4,143.298
3101.4,143.816
3102.4,144.104
3103.4,148.446
3104.4,143.282
3105.3,147.12
3106.3,151.908
3107.3,154.896
3108.3,157.694
3109.3,157.462
3110.3,161.056
3111.3,162.8
3112.2,161.11
3113.2,166.928
3114.2,167.79
3115.2,170.686
3116.2,173.244
3117.1,173.6
3118.1,174.534
3119.1,176.188
3120.1,177.082
3121,183.048
3122,181.27
3123,183.942
3124,187.262
3124.9,186.172
3125.9,191.76
3126.9,194.894
3127.9,193.766
3128.8,195.888
3129.8,193.478
3130.8,200.726
3131.7,198.148
3132.7,202.08
3133.7,203.626
3134.7,204.226
3135.6,207.244
3136.6,207.514
3137.6,210.46
3138.5,210.734
3139.5,217.012
3140.4,215.326
3141.4,214.36
3142.4,215.982
3143.3,217.632
3144.3,220.59
3145.3,220.862
3146.2,221.134
3147.2,223.324
3148.1,222.038
3149.1,227.694
3150.1,227.24
3151,227.482
3152,229.808
3152.9,229.652
3153.9,230.426
3154.8,234.752
3155.8,237.408
3156.7,235.034
3157.7,237.926
3158.6,240.784
3159.6,240.54
3160.6,241.612
3161.5,244.006
3162.5,241.858
3163.4,245.582
3164.4,244.072
3165.3,237.928
3166.2,244.122
3167.2,247.208
3168.1,247.664
3169.1,245.11
3170,247.774
3171,251.758
3171.9,253.382
3172.9,251.832
3173.8,257.388
3174.7,251.65
3175.7,248.748
3176.6,255.572
3177.6,250.818
3178.5,253.872
3179.5,252.67
3180.4,253.796
3181.3,252.61
3182.3,256.428
3183.2,256.694
3184.1,254.674
3185.1,259.47
3186,253.782
3186.9,256.192
3187.9,259.472
3188.8,253.79
3189.7,255.89
3190.7,256.732
3191.6,254.942
3192.5,257.244
3193.5,257.024
3194.4,257.06
3195.3,254.858
3196.3,252.63
3197.2,254.832
3198.1,255.784
3199,254.892
3200,254.522
3200.9,252.292
3201.8,252.436
3202.7,252.258
3203.7,250.822
3204.6,249.432
3205.5,249.838
3206.4,243.26
3207.3,245.582
3208.3,243.988
3209.2,239.676
3210.1,239.072
3211,236.69
3211.9,234.858
3212.9,237.89
3213.8,234.242
3214.7,233.07
3215.6,231.056
3216.5,228.384
3217.4,228.16
3218.4,224.518
3219.3,221.306
3220.2,221.052
3221.1,217.602
3222,215.272
3222.9,214.244
3223.8,213.36
3224.7,211.392
3225.6,210.484
3226.6,201.782
3227.5,200.074
3228.4,199.554
3229.3,194.932
3230.2,196.47
3231.1,191.294
3232,183.918
3232.9,182.656
3233.8,180.85
3234.7,177.7
3235.6,173.162
3236.5,169.98
3237.4,167.788
3238.3,162.324
3239.2,161.874
3240.1,156.906
3241,156.024
3241.9,148.734
3242.8,146.668
3243.7,136.098
3244.6,135.864
3245.5,127.326
3246.4,119.742
3247.3,113.37
3248.2,105.5332
3249.1,94.4246
3250,88.9716
3250.9,76.7124
3251.8,71.0152
3252.7,58.1684
3253.5,46.424
3254.4,29.3268
3255.3,14.253
3256.2,-9.86044
