250.34,-4.46132
252.57,-5.16072
254.8,0
257.03,-1.87704
259.26,-3.58252
261.48,-0.55924
263.71,7.735892
265.94,-8.209096
268.16,0.32074
270.39,5.77018
272.61,-2.05426
274.84,-7.16432
277.06,2.98128
279.28,-0.13964
281.51,0.2788404
283.73,1.53852
285.95,2.94958
288.17,4.570502
290.39,0.79728
292.61,-0.469428
294.83,-0.299842
297.05,7.669636
299.27,9.500762
301.48,11.38896
303.7,9.788942
305.91,11.64052
308.13,9.13686
310.35,9.8671
312.56,11.0783
314.77,10.7839
316.99,9.37796
319.2,4.83994
321.41,6.26326
323.62,3.43678
325.83,-0.0780002
328.04,9.795362
330.25,5.29902
332.46,0.34172
334.67,8.34404
336.88,15.5218
339.08,17.23782
341.29,30.7446
343.5,35.4802
345.7,74.6646
347.91,142.2152
350.11,304.576
352.31,573.88
354.52,759.002
356.72,698.904
358.92,466.992
361.12,262.726
363.32,145.632
365.52,90.5252
367.72,62.6958
369.92,42.1024
372.12,39.9328
374.32,58.337
376.51,87.4082
378.71,112.534
380.9,97.5932
383.1,55.6074
385.29,29.2884
387.49,19.852
389.68,8.28026
391.87,7.41306
394.07,0.651952
396.26,-0.569196
398.45,-2.94178
400.64,6.524328
402.83,14.14946
405.02,17.9476
407.21,34.1562
409.39,61.2174
411.58,135.44
413.77,375.21
415.95,645.37
418.14,700
420.32,475.654
422.51,240.248
424.69,126.058
426.87,90.4232
429.06,90.6466
431.24,86.2962
433.42,57.416
435.6,32.5912
437.78,20.55428
439.96,7.87098
442.14,-0.1433694
444.31,10.54912
446.49,30.9406
448.67,43.2742
450.84,36.0764
453.02,18.059
455.19,6.47402
457.37,7.751444
459.54,3.9043
461.71,2.281494
463.89,1.83052
466.06,-4.8933
468.23,-5.044122
470.4,-8.0589
472.57,-6.25832
474.74,-8.66794
476.91,-10.68856
479.07,-5.80036
481.24,6.1843
483.41,10.64288
485.57,7.58194
487.74,5.83562
489.9,6.941682
492.07,0.914046
494.23,-0.448586
496.4,-0.636792
498.56,-9.66026
500.72,-11.4261
502.88,-9.5211
505.04,-14.38056
507.2,-11.649214
509.36,-9.784076
511.52,-8.734278
513.68,-11.2043808
515.83,-9.01232
517.99,-2.430206
520.14,-5.24542
522.3,-4.96516
524.45,-1.88376
526.61,-0.375274
528.76,2.6107602
530.91,0.80554
533.07,8.49028
535.22,10.59942
537.37,6.74204
539.52,9.71258
541.67,12.041366
543.82,3.9949
545.97,3.5269
548.11,1.33758
550.26,-0.225018
552.41,-3.26181
554.55,-1.268432
556.7,0.437122
558.84,3.09396
560.98,12.28778
563.13,14.87458
565.27,24.67
567.41,30.3466
569.55,52.1498
571.69,84.1348
573.83,154.52
575.97,230.718
578.11,314.902
580.25,440.374
582.39,805.074
584.52,1455.36
586.66,2001.52
588.79,1959.3
590.93,1387.872
593.06,802.868
595.19,432.084
597.33,230.83
599.46,130.7912
601.59,73.1406
603.72,37.6024
605.85,17.6971
607.98,0.0644542
610.11,-3.90584
612.24,-9.9995
614.36,0.46552
616.49,-7.39194
618.62,-6.96236
620.74,-0.46895
622.87,4.21362
624.99,0.0199412
627.11,-0.71348
629.24,-3.23604
631.36,-2.516
633.48,2.45984
635.6,-5.362026
637.72,-2.15936
639.84,-1.91716
641.96,0.07573116
644.08,-3.937004
646.2,-4.889808
648.31,-9.413
650.43,-14.71928
652.54,-16.53018
654.66,-16.68146
656.77,-18.0448
658.89,-17.9804
661,-18.37008
663.11,-16.5174
665.22,-22.4772
667.33,-19.9868
669.44,-33.3496
671.55,-36.1994
673.66,-30.048
675.77,-38.6794
677.88,-38.1642
679.98,-39.5516
682.09,-35.6122
684.2,-28.6302
686.3,-24.3728
688.4,-28.8458
690.51,-22.66396
692.61,-24.3392
694.71,-23.28738
696.81,-15.26438
698.92,-20.034
701.02,-16.71116
703.11,-12.03488
705.21,-10.22282
707.31,-7.888606
709.41,-7.360624
711.51,-2.802316
713.6,-8.55356
715.7,-8.889046
717.79,-6.28564
719.89,-3.6754
721.98,-0.336386
724.07,-4.703694
726.16,-2.19014
728.25,2.20704
730.35,-0.0205200000000003
732.44,11.27368
734.52,20.2902
736.61,37.6484
738.7,55.9906
740.79,77.0732
742.87,112.4482
744.96,154.048
747.05,207.414
749.13,239.06
751.21,239.22
753.3,208.512
755.38,156.738
757.46,118.542
759.54,80.1994
761.62,59.7078
763.7,35.1226
765.78,24.3432
767.86,14.29606
769.94,14.71038
772.01,5.38664
774.09,-1.559862
776.17,4.304674
778.24,0.13042
780.32,0.875442
782.39,0.82864
784.46,5.22041
786.53,12.4308
788.61,14.0751
790.68,16.65988
792.75,11.6058
794.82,18.00204
796.89,12.21186
798.95,18.155
801.02,14.9174
803.09,22.57354
805.15,27.537
807.22,53.6712
809.28,100.8198
811.35,237.222
813.41,367.122
815.47,379.736
817.53,254.56
819.6,134.778
821.66,73.6426
823.72,36.0258
825.78,23.1798
827.83,18.683524
829.89,14.52756
831.95,16.49624
834,10.3549
836.06,6.429896
838.12,12.27266
840.17,11.44058
842.22,12.44358
844.28,7.107398
846.33,10.23962
848.38,8.123242
850.43,6.95418
852.48,10.4331
854.53,9.17788
856.58,6.4955
858.63,9.26386
860.67,5.812
862.72,3.53362
864.77,4.188258
866.81,7.2767626
868.86,-1.15412
870.9,2.46539
872.94,-0.902184
874.98,0.24657
877.03,-3.7159572
879.07,-3.4092
881.11,-5.27212
883.15,-3.04778
885.19,-1.148944
887.22,0.73948
889.26,5.63986
891.3,5.03802
893.33,0.531292
895.37,-3.08848
897.4,-1.663302
899.44,0
901.47,2.36357
903.5,-1.05955
905.54,-1.56944
907.57,1.82248
909.6,-3.95822
911.63,-2.33442
913.66,-0.42658
915.68,-1.527644
917.71,1.8114
919.74,-7.9418
921.76,-3.7617
923.79,-6.111792
925.82,0.51822
927.84,3.45228
929.86,4.36072
931.89,7.55228
933.91,9.18539324
935.93,11.679146
937.95,9.0326
939.97,4.71247
941.99,1.13048
944.01,4.43948
946.02,0.068816
948.04,2.69076
950.06,2.167548
952.07,-0.44141
954.09,3.0305074
956.1,2.175414
958.12,8.290212
960.13,7.32952
962.14,3.489408
964.15,8.02052
966.16,4.5194206
968.17,-3.28444
970.18,0.320376
972.19,0.78328
974.2,3.36753
976.2,4.49778
978.21,5.43274
980.22,4.18654
982.22,7.64724
984.22,6.07768
986.23,10.63606
988.23,6.62932
990.23,10.11692
992.23,14.62274
994.24,7.42224
996.23,8.54944
998.23,9.6093
1000.2,13.39712
1002.2,17.37178
1004.2,14.671
1006.2,16.2634
1008.2,18.836
1010.2,16.94716
1012.2,18.584
1014.2,22.1704
1016.2,24.8744
1018.2,26.733
1020.2,22.393
1022.2,30.9548
1024.2,32.3548
1026.1,39.1596
1028.1,57.2768
1030.1,109.6308
1032.1,216.158
1034.1,300.272
1036.1,278.282
1038.1,175.658
1040.1,97.7028
1042,60.3424
1044,43.83
1046,33.9674
1048,32.1928
1050,26.8062
1051.9,26.2958
1053.9,23.1394
1055.9,26.4014
1057.9,21.4826
1059.9,21.1872
1061.8,12.06302
1063.8,12.61208
1065.8,13.664
1067.8,13.7771
1069.7,11.0121
1071.7,14.14472
1073.7,13.1419
1075.6,13.19732
1077.6,13.84672
1079.6,9.42104
1081.5,9.07172
1083.5,4.58982
1085.5,4.425022
1087.5,7.4388
1089.4,2.0792
1091.4,0.984456
1093.3,-2.31356
1095.3,-0.8028
1097.3,-0.4186
1099.2,1.57966
1101.2,-1.507
1103.2,-1.763876
1105.1,-1.61008
1107.1,-1.92808
1109,-1.154212
1111,-3.108928
1113,0.281975
1114.9,-0.754228
1116.9,-3.737122
1118.8,-10.23228
1120.8,-2.402144
1122.7,5.256152
1124.7,1.3692344
1126.6,1.52419
1128.6,4.461754
1130.5,0.81746
1132.5,1.633218
1134.4,0.69188
1136.4,3.965436
1138.3,6.0233
1140.3,7.08472
1142.2,3.917444
1144.2,9.12522
1146.1,9.37822
1148.1,6.39086
1150,11.98362
1151.9,10.6011
1153.9,10.67651
1155.8,13.19494
1157.8,9.01098
1159.7,10.350156
1161.6,11.92288
1163.6,15.65254
1165.5,15.4972
1167.5,12.97318
1169.4,11.7676
1171.3,18.917
1173.3,20.4044
1175.2,15.856
1177.1,15.1688
1179.1,17.6146
1181,18.80214
1182.9,17.03198
1184.9,17.38294
1186.8,21.608
1188.7,22.7152
1190.6,23.8672
1192.6,28.537
1194.5,31.8648
1196.4,29.105
1198.4,33.5846
1200.3,33.5168
1202.2,33.5568
1204.1,28.2538
1206,31.5564
1208,33.7232
1209.9,36.1096
1211.8,42.223
1213.7,41.4462
1215.6,40.3572
1217.6,44.8376
1219.5,46.0284
1221.4,41.3486
1223.3,46.3056
1225.2,46.876
1227.1,46.179
1229.1,51.6164
1231,51.2486
1232.9,53.4724
1234.8,56.9822
1236.7,59.5196
1238.6,64.4228
1240.5,69.9982
1242.4,74.2048
1244.3,87.7654
1246.2,94.454
1248.1,95.5442
1250.1,96.6436
1252,104.567
1253.9,112.1342
1255.8,121.118
1257.7,136.99
1259.6,153.704
1261.5,177.7
1263.4,206.366
1265.3,234.554
1267.2,265.474
1269.1,291.362
1271,324.67
1272.9,347.072
1274.8,361.276
1276.6,364.398
1278.5,349.328
1280.4,350.498
1282.3,385.502
1284.2,413.196
1286.1,376.978
1288,290.848
1289.9,221.058
1291.8,174.392
1293.7,150.248
1295.6,137.082
1297.4,127.788
1299.3,119.31
1301.2,111.5918
1303.1,110.29
1305,106.1442
1306.9,100.4006
1308.7,100.456
1310.6,96.9248
1312.5,92.0446
1314.4,90.4288
1316.3,90.3108
1318.1,90.6854
1320,87.5948
1321.9,83.1828
1323.8,81.8572
1325.7,84.0662
1327.5,85.6224
1329.4,86.8714
1331.3,84.798
1333.1,82.3412
1335,83.1644
1336.9,86.9132
1338.8,82.6428
1340.6,88.0614
1342.5,91.7856
1344.4,95.1214
1346.2,104.01
1348.1,106.3804
1350,116.172
1351.8,124.566
1353.7,123.852
1355.6,131.09
1357.4,143.324
1359.3,149.81
1361.1,162.944
1363,179.93
1364.9,199.412
1366.7,233.722
1368.6,270.138
1370.4,319.154
1372.3,388.868
1374.2,478.006
1376,609.928
1377.9,779.686
1379.7,974.824
1381.6,1121.58
1383.4,1182.62
1385.3,1179.7
1387.1,1100.52
1389,912.176
1390.8,670.758
1392.7,480.754
1394.5,370.682
1396.4,293.934
1398.2,251.258
1400.1,214.172
1401.9,186.022
1403.8,162.766
1405.6,145.868
1407.4,139.164
1409.3,124.982
1411.1,102.8818
1413,82.6306
1414.8,68.7014
1416.6,60.443
1418.5,53.7458
1420.3,42.1822
1422.2,37.11
1424,35.4766
1425.8,28.5328
1427.7,27.272
1429.5,22.8058
1431.3,18.4339
1433.2,16.11598
1435,15.15126
1436.8,15.75674
1438.7,14.39266
1440.5,10.5294
1442.3,3.89186
1444.1,7.68922
1446,7.99152
1447.8,8.872218
1449.6,5.80926
1451.4,-2.44426
1453.3,1.06294
1455.1,-0.6019472
1456.9,0.3316062
1458.7,0.2247974
1460.6,0.20294
1462.4,1.10935
1464.2,-0.692944
1466,-4.619844
1467.8,-2.363062
1469.6,-3.225834
1471.5,-2.689528
1473.3,-7.55594
1475.1,-6.23614
1476.9,-2.63373
1478.7,-5.5119
1480.5,-5.82680514
1482.4,-3.405624
1484.2,-6.52988
1486,-4.509892
1487.8,-4.51998
1489.6,-12.12762
1491.4,-6.0144398
1493.2,-8.518734
1495,-6.08004
1496.8,-5.68244
1498.6,-7.1589
1500.4,-6.43634
1502.2,-6.31552
1504,-6.858476
1505.8,-4.038526
1507.6,-1.14122
1509.4,-3.15502
1511.2,-3.882848
1513,-2.147116
1514.8,-6.57334
1516.6,-1.218834
1518.4,-2.84141
1520.2,-3.56026
1522,0.55892
1523.8,-4.64176
1525.6,-1.10771
1527.4,-5.01047
1529.2,-6.258954
1531,-4.07636
1532.8,-2.898706
1534.6,-2.500386
1536.4,-2.01792
1538.2,1.119064
1539.9,2.43794
1541.7,4.239836
1543.5,4.329634
1545.3,10.27574
1547.1,9.68494
1548.9,16.1637
1550.7,20.8124
1552.4,26.6826
1554.2,35.8998
1556,39.245
1557.8,38.2432
1559.6,30.122
1561.3,30.7896
1563.1,32.2924
1564.9,34.1102
1566.7,37.3502
1568.4,38.6598
1570.2,46.815
1572,51.7686
1573.8,53.457
1575.5,57.9926
1577.3,65.2954
1579.1,67.8716
1580.9,77.5504
1582.6,80.182
1584.4,89.5416
1586.2,92.4746
1587.9,104.0602
1589.7,106.208
1591.5,112.668
1593.2,118.996
1595,121.436
1596.8,127.276
1598.5,136.684
1600.3,150.048
1602,158.17
1603.8,160.028
1605.6,172.836
1607.3,181.982
1609.1,191.774
1610.8,198.784
1612.6,204.79
1614.4,213.346
1616.1,221.028
1617.9,226.472
1619.6,232.36
1621.4,236.758
1623.1,249.76
1624.9,255.778
1626.6,258.112
1628.4,268.668
1630.1,269.67
1631.9,275.086
1633.6,281.864
1635.4,279.72
1637.1,281.484
1638.9,284.184
1640.6,284.114
1642.4,282.02
1644.1,282.432
1645.8,284.376
1647.6,287.588
1649.3,279.312
1651.1,277.184
1652.8,272.534
1654.6,271.078
1656.3,264.306
1658,266.216
1659.8,261.126
1661.5,256.516
1663.2,252.876
1665,249.248
1666.7,244.282
1668.4,236.89
1670.2,231.576
1671.9,226.418
1673.6,218.778
1675.4,215.908
1677.1,205.33
1678.8,203.498
1680.5,194.1
1682.3,188.558
1684,178.102
1685.7,178.526
1687.5,172.2
1689.2,167.814
1690.9,160.276
1692.6,157.882
1694.3,149.342
1696.1,146.312
1697.8,139.594
1699.5,136.91
1701.2,130.252
1702.9,131.284
1704.7,121.696
1706.4,118.38
1708.1,113.582
1709.8,111.662
1711.5,111.04
1713.2,108.1576
1714.9,103.9006
1716.7,99.967
1718.4,96.0038
1720.1,86.2684
1721.8,81.3406
1723.5,80.375
1725.2,77.0668
1726.9,76.9766
1728.6,72.3284
1730.3,70.7184
1732,70.2158
1733.7,61.9894
1735.4,57.9876
1737.1,56.7838
1738.8,54.0708
1740.6,50.1528
1742.3,45.9816
1744,42.3308
1745.7,37.4208
1747.3,34.6462
1749,31.0598
1750.7,28.3678
1752.4,30.475
1754.1,28.6046
1755.8,25.1346
1757.5,21.0948
1759.2,22.8884
1760.9,18.6684
1762.6,17.0964
1764.3,15.9154
1766,12.65852
1767.7,16.751
1769.4,13.7356
1771.1,12.79738
1772.7,10.70564
1774.4,8.57972
1776.1,11.45746
1777.8,6.48916
1779.5,4.25017
1781.2,5.377882
1782.8,8.86612
1784.5,5.352644
1786.2,4.319338
1787.9,1.8262
1789.6,3.5943498
1791.2,1.380336
1792.9,2.96978
1794.6,-1.142338
1796.3,1.505096
1798,-0.673548
1799.6,-1.20598
1801.3,-0.28741
1803,0.740332
1804.7,-0.8372414
1806.3,-2.18796
1808,0.41774
1809.7,-0.646376
1811.3,1.804656
1813,-1.5326824
1814.7,2.917532
1816.3,1.930364
1818,2.079392
1819.7,-1.269224
1821.3,-0.13773
1823,-2.217628
1824.7,-1.33766
1826.3,0.527822
1828,-0.1514662
1829.7,1.32596
1831.3,1.740674
1833,-0.724646
1834.6,0.0803459999999999
1836.3,1.850668
1838,-0.7072
1839.6,-1.66034096
1841.3,-1.20838
1842.9,-0.930544
1844.6,-1.615098
1846.2,1.668728
1847.9,-3.5246
1849.5,0.0847099999999999
1851.2,3.711408
1852.8,-0.37258
1854.5,2.46866
1856.1,3.5873
1857.8,0.42828
1859.4,2.61896
1861.1,2.28726
1862.7,1.210108
1864.4,1.00634
1866,0.0797000000000001
1867.7,0.24895
1869.3,1.2801
1871,2.524102
1872.6,0.80234
1874.2,1.705016
1875.9,-1.58102
1877.5,1.49086
1879.2,0
1880.8,-1.51767
1882.4,-10.54552
1884.1,-1.826734
1885.7,-2.320792
1887.3,-1.58498
1889,-0.626694
1890.6,-2.468944
1892.2,-2.27224
1893.9,0.171042
1895.5,-4.46053
1897.1,-3.45088
1898.8,-1.93774
1900.4,-2.059706
1902,-6.603696
1903.7,-2.91182
1905.3,-4.91124
1906.9,-4.615338
1908.5,-4.25834
1910.2,-1.211206
1911.8,-2.724118
1913.4,-1.385906
1915,-2.009524
1916.7,-4.3991
1918.3,-1.3631454
1919.9,-5.373642
1921.5,-2.45136
1923.1,-3.483274
1924.8,-1.191084
1926.4,-2.209532
1928,-1.149486
1929.6,-3.02841
1931.2,-1.392702
1932.8,-4.42738
1934.4,-4.053954
1936.1,-1.028466
1937.7,-2.99938
1939.3,-4.0412
1940.9,-3.25764
1942.5,-3.7686
1944.1,1.630814
1945.7,0.23498
1947.3,-1.80385
1948.9,-3.121264
1950.5,-4.041664
1952.1,0.184185
1953.8,0.14128
1955.4,-1.67487
1957,-1.20418
1958.6,-4.688754
1960.2,-0.343218
1961.8,1.2626
1963.4,-0.78884
1965,-2.1127408
1966.6,-0.718928
1968.2,-3.03012
1969.8,-1.37712
1971.4,-0.716268
1973,0.1819
1974.5,-2.9264
1976.1,-0.489684
1977.7,0.518722
1979.3,1.6653
1980.9,-2.781958
1982.5,-1.793202
1984.1,-1.45492
1985.7,0.603708
1987.3,2.398974
1988.9,-2.6816
1990.5,1.76506
1992,1.93872
1993.6,3.1016
1995.2,1.81656
1996.8,3.400176
1998.4,1.250346
2000,-1.558746
2001.6,1.32976
2003.1,1.81988
2004.7,1.419584
2006.3,1.60314
2007.9,1.59382
2009.5,1.093924
2011,1.7956
2012.6,3.4715
2014.2,2.88434
2015.8,2.443328
2017.3,2.339016
2018.9,-0.5752818
2020.5,3.058764
2022.1,1.8146
2023.6,1.7991
2025.2,3.495144
2026.8,0.739074
2028.3,0.7233
2029.9,3.057832
2031.5,1.160232
2033,2.90766
2034.6,1.406158
2036.2,-0.76148
2037.7,6.689428
2039.3,0.86592
2040.9,3.43648
2042.4,4.20782
2044,1.883294
2045.6,1.16438
2047.1,3.675142
2048.7,7.00292
2050.2,-5.260144
2051.8,4.4733
2053.4,-0.0218636
2054.9,1.2038643
2056.5,-0.966254
2058,1.57494
2059.6,1.6286518
2061.1,-0.659814
2062.7,0.62984
2064.2,1.48976
2065.8,5.34326
2067.3,2.759712
2068.9,2.651822
2070.4,-1.030824
2072,0.0559800000000001
2073.5,3.762262
2075.1,2.070684
2076.6,1.27769
2078.2,-1.047464
2079.7,0.504014
2081.3,3.852474
2082.8,3.986784
2084.4,1.39318
2085.9,2.098434
2087.4,-0.95202
2089,-0.1479
2090.5,3.55476
2092.1,0.187626
2093.6,0.2066
2095.1,2.275576
2096.7,4.738522
2098.2,4.765724
2099.7,2.60712
2101.3,1.877524
2102.8,4.7816028
2104.3,2.3281
2105.9,6.58382
2107.4,4.34776
2108.9,4.248
2110.5,5.30675
2112,5.53978
2113.5,3.562906
2115.1,5.778266
2116.6,2.7025058
2118.1,5.34666
2119.6,5.10276
2121.2,5.62802
2122.7,6.245334
2124.2,5.38242
2125.7,6.84006
2127.3,6.12752
2128.8,8.31954
2130.3,10.9846
2131.8,13.1158
2133.3,20.6976
2134.9,27.6804
2136.4,42.1188
2137.9,58.5998
2139.4,71.2868
2140.9,81.6846
2142.4,77.367
2144,62.508
2145.5,36.5084
2147,25.6768
2148.5,19.5946
2150,11.38202
2151.5,11.40818
2153,7.56976
2154.5,6.06114
2156,5.1177
2157.6,1.5971
2159.1,3.506822
2160.6,4.040974
2162.1,2.418566
2163.6,1.78208
2165.1,-1.492726
2166.6,1.409518
2168.1,3.83096
2169.6,-6.05676
2171.1,6.20475
2172.6,4.030858
2174.1,-1.9743
2175.6,2.89218
2177.1,5.12986
2178.6,2.35164
2180.1,4.238278
2181.6,1.70128
2183.1,-1.63128
2184.6,-2.9234776
2186.1,-0.89254
2187.5,0.0178999999999999
2189,1.4179
2190.5,0.938768
2192,0.98036
2193.5,-0.117174
2195,-0.547
2196.5,-0.79424
2198,0.322342
2199.5,0.21395
2201,0.1818
2202.4,-1.510268
2203.9,-3.3107176
2205.4,-0.68336
2206.9,-1.953818
2208.4,1.6192994
2209.9,1.851126
2211.3,-0.41008
2212.8,-0.51336
2214.3,0.37866
2215.8,-2.9457486
2217.3,-2.78834
2218.7,-4.01368
2220.2,-3.17143
2221.7,-0.502318
2223.2,-1.19146
2224.6,-3.68492
2226.1,-0.38658
2227.6,-2.38692
2229.1,-5.70428
2230.5,-5.67608
2232,1.160138
2233.5,-1.84412
2234.9,-0.26726
2236.4,-5.19722
2237.9,-2.13082
2239.3,-3.57784
2240.8,-3.73592
2242.3,-0.119914
2243.7,-2.994594
2245.2,-3.49176
2246.7,-1.6077
2248.1,-5.4682
2249.6,-6.22728
2251.1,-3.79334
2252.5,1.416536
2254,-3.54358
2255.4,-2.97255
2256.9,-1.685496
2258.3,-3.22606
2259.8,-2.316572
2261.3,-8.7057
2262.7,1.4057
2264.2,0.616164
2265.6,-1.416616
2267.1,-1.553202
2268.5,-6.59636
2270,-2.14162
2271.4,-4.927
2272.9,-2.09838
2274.3,0
2275.8,-0.35806
2277.2,-2.48356
2278.7,-2.79962
2280.1,-3.96738
2281.6,-1.0443858
2283,-0.208804
2284.5,-5.51074
2285.9,-3.37804
2287.4,-2.807294
2288.8,-3.08542
2290.2,-1.86066
2291.7,-1.86263
2293.1,-3.88878
2294.6,-8.27998
2296,-1.624376
2297.4,2.57196
2298.9,1.277806
2300.3,-0.53278
2301.7,-1.0624
2303.2,-5.8807
2304.6,-5.28584
2306,-2.264264
2307.5,2.831298
2308.9,-1.2126656
2310.3,-4.60302
2311.8,-1.7903
2313.2,-2.82814
2314.6,-1.7384
2316.1,0.150062
2317.5,-1.9079
2318.9,-1.90406
2320.3,1.10689
2321.8,6.33662
2323.2,3.2348
2324.6,9.93936
2326,15.01588
2327.5,27.0784
2328.9,31.749
2330.3,29.071
2331.7,24.7418
2333.2,14.35878
2334.6,6.41006
2336,3.4782864
2337.4,1.763398
2338.8,1.38986
2340.2,2.8305542
2341.7,-0.84198
2343.1,1.66428
2344.5,1.85342
2345.9,-2.33097
2347.3,-3.188836
2348.7,1.68261
2350.1,-2.05688
2351.6,-1.23666
2353,-0.468898
2354.4,-1.169158
2355.8,-3.7895
2357.2,-5.53812
2358.6,-5.51216
2360,0.62668
2361.4,0.098766
2362.8,-1.46416
2364.2,-0.03418
2365.6,2.489587
2367,-0.62334
2368.4,0.56744
2369.8,0.993582
2371.2,1.01652
2372.6,0.8658
2374,0.30562
2375.4,0.50728
2376.8,2.1754846
2378.2,1.777262
2379.6,0.972042
2381,-1.00474
2382.4,1.8764
2383.8,-0.301442
2385.2,-0.351764
2386.6,-0.14186
2388,0.718446
2389.4,-2.084256
2390.8,0.59462
2392.1,1.17796
2393.5,-1.96486
2394.9,0.14462
2396.3,-0.46121
2397.7,2.38134
2399.1,-1.908222
2400.5,-2.89334
2401.9,0.33968
2403.2,-1.97422
2404.6,0.967236
2406,-3.687922
2407.4,-0.44606
2408.8,-1.14974
2410.2,0.93633
2411.5,-0.6264
2412.9,0.896636
2414.3,-1.164092
2415.7,0
2417,-0.68041
2418.4,2.076904
2419.8,0.74566
2421.2,-0.909156
2422.5,0.04542
2423.9,-1.495422
2425.3,-0.21046
2426.7,-3.8432034
2428,-1.673354
2429.4,-1.16462
2430.8,-1.45968
2432.1,-1.143138
2433.5,0.14128
2434.9,-0.421256
2436.2,-0.654878
2437.6,-2.19515
2439,-0.795048
2440.3,-0.54008
2441.7,-1.487466
2443.1,-1.494082
2444.4,1.2673
2445.8,-2.278614
2447.2,-1.025486
2448.5,0.2695
2449.9,-3.555748
2451.2,3.5542
2452.6,0.211166
2454,-0.412788
2455.3,2.3187068
2456.7,0.11918
2458,-0.936486
2459.4,-3.9095
2460.7,0.255056
2462.1,-2.327242
2463.4,1.963576
2464.8,2.49077
2466.1,1.816608
2467.5,0.13768
2468.8,1.26486
2470.2,0.661076
2471.5,1.45118
2472.9,2.09586
2474.2,0.45607
2475.6,-0.85264
2476.9,1.7459
2478.3,3.59434
2479.6,2.98716
2481,2.145454
2482.3,0.616276
2483.6,1.2175998
2485,1.54092
2486.3,-0.024638
2487.7,3.48066
2489,1.853664
2490.3,3.034116
2491.7,0.096434
2493,-0.0486260000000001
2494.4,2.12974
2495.7,3.7315
2497,1.8234
2498.4,1.02606
2499.7,2.122478
2501,2.1723
2502.4,3.32022
2503.7,-0.568866
2505,4.109856
2506.4,0.74256
2507.7,1.474352
2509,-0.69922
2510.3,1.7427802
2511.7,-0.1982922
2513,-0.707
2514.3,-0.85092
2515.6,1.012053
2517,-0.630566
2518.3,-2.44014
2519.6,0.709942
2520.9,0
2522.3,2.151862
2523.6,1.482256
2524.9,0.046688
2526.2,-1.370804
2527.5,-1.84327
2528.9,0.00848000000000009
2530.2,0.00228859999999997
2531.5,-0.43668
2532.8,-1.61899
2534.1,1.740736
2535.4,1.721222
2536.8,-0.0224328000000001
2538.1,-1.542052
2539.4,-2.566294
2540.7,0.658694
2542,0.62782
2543.3,0.00615999999999994
2544.6,-3.9537
2545.9,-0.0508999999999999
2547.2,-1.6970128
2548.6,0.696196
2549.9,0.94056
2551.2,2.579248
2552.5,0.85256
2553.8,-2.1867416
2555.1,0.7501596
2556.4,0.976912
2557.7,-1.63806
2559,1.143708
2560.3,-2.314622
2561.6,0.55686
2562.9,1.732942
2564.2,0.476658
2565.5,3.444098
2566.8,1.6788276
2568.1,-0.6167
2569.4,1.85486
2570.7,1.915094
2572,1.86464
2573.3,1.21866
2574.6,2.53376
2575.9,2.10779
2577.1,0.379924
2578.4,0.67342
2579.7,0.43402
2581,4.114772
2582.3,3.70194
2583.6,1.89672
2584.9,1.874616
2586.2,0.0823202
2587.5,0.415574
2588.7,0.160508
2590,0.769552
2591.3,1.592702
2592.6,2.039868
2593.9,2.76798
2595.2,-0.780038
2596.4,2.9591
2597.7,0.850164
2599,4.56652
2600.3,5.55776
2601.6,3.22992
2602.8,2.214988
2604.1,2.27778
2605.4,2.131768
2606.7,0.416972
2608,1.780358
2609.2,2.48866
2610.5,1.687912
2611.8,0.151196
2613,-1.781604
2614.3,0.395702
2615.6,0.90586
2616.9,0.10348
2618.1,0.89537
2619.4,-0.734246
2620.7,2.07514
2621.9,3.652134
2623.2,2.225288
2624.5,-2.09466
2625.7,-0.518346
2627,-0.00372600000000012
2628.3,0.620826
2629.5,0
2630.8,1.118735
2632.1,-2.285124
2633.3,-0.934892
2634.6,1.2621032
2635.8,-0.512024
2637.1,1.29673
2638.4,0.357294
2639.6,2.8479
2640.9,-0.26584
2642.1,0.91482
2643.4,-2.15736
2644.6,-0.71118
2645.9,-1.961384
2647.2,-5.30382
2648.4,0.0148
2649.7,-0.4575816
2650.9,-1.0438
2652.2,-0.41427
2653.4,0.20066
2654.7,0.0555640000000001
2655.9,-2.421834
2657.2,-4.20262
2658.4,1.39325
2659.7,4.15806
2660.9,-1.102962
2662.2,-0.136486
2663.4,-3.266484
2664.6,-0.7522
2665.9,-0.49226
2667.1,0.7735
2668.4,-0.384546
2669.6,-4.1023
2670.9,0.361442
2672.1,-0.606768
2673.3,-2.25822
2674.6,-0.31855
2675.8,0.823612
2677.1,-3.30546
2678.3,-0.93836
2679.5,-0.04412
2680.8,-1.11008
2682,0.51929978
2683.2,-2.106136
2684.5,-0.21061
2685.7,-1.613916
2686.9,-1.4647722
2688.2,-1.855462
2689.4,-0.50782
2690.6,-0.948376
2691.9,-4.0444
2693.1,0.33608
2694.3,-0.0980399999999999
2695.5,-1.49212
2696.8,-2.907606
2698,-2.006954
2699.2,-2.225982
2700.4,-2.9253568
2701.7,-1.927934
2702.9,-1.59962
2704.1,0.20754
2705.3,-1.135758
2706.6,-0.44792
2707.8,1.10452
2709,-0.625458
2710.2,-1.959438
2711.4,-1.205922
2712.6,-0.99688
2713.9,-1.4148
2715.1,-1.721062
2716.3,-0.67158
2717.5,-1.365368
2718.7,-0.1096322
2719.9,-2.715242
2721.2,-2.2695802
2722.4,-4.2120338
2723.6,-1.41166
2724.8,-3.224824
2726,0
2727.2,-3.322942
2728.4,-2.72182
2729.6,-2.60624
2730.8,-0.659376
2732,-0.70706
2733.3,-3.623
2734.5,-2.91594
2735.7,-1.23616
2736.9,-2.56177
2738.1,-4.04562
2739.3,-4.25284
2740.5,-2.8032068
2741.7,-2.617304
2742.9,-4.29124
2744.1,-1.86181324
2745.3,-3.76982
2746.5,-2.63712
2747.7,-4.335501
2748.9,-3.489
2750.1,-1.078904
2751.3,-2.150472
2752.5,-2.97584
2753.7,-0.81176
2754.9,-2.398154
2756,-2.014014
2757.2,-1.6902
2758.4,-3.25236
2759.6,-1.77392
2760.8,-1.97674
2762,-2.033574
2763.2,-0.917248
2764.4,-3.4751
2765.6,-1.882612
2766.8,-1.655768
2767.9,-0.42638
2769.1,-2.5910846
2770.3,-0.627608
2771.5,-2.333914
2772.7,-2.31716
2773.9,-3.90912
2775.1,-2.88822
2776.2,-3.119954
2777.4,-4.22068
2778.6,-4.46126
2779.8,-2.41308
2781,-2.395994
2782.1,-2.023332
2783.3,-6.14468
2784.5,-3.0285
2785.7,-3.23868
2786.8,-3.1711
2788,-0.718206
2789.2,-3.335176
2790.4,-2.101726
2791.5,-2.17062
2792.7,-4.76454
2793.9,-1.08278
2795.1,-2.3363958
2796.2,-1.40228
2797.4,-3.51191
2798.6,-4.45508
2799.7,-1.664638
2800.9,-3.830204
2802.1,-4.0196
2803.2,-0.5823
2804.4,-2.733612
2805.6,0.0455400000000001
2806.7,-1.288226
2807.9,-1.942602
2809.1,-0.3499
2810.2,0.33854
2811.4,-1.48549
2812.6,-1.273466
2813.7,-0.6188
2814.9,-2.575228
2816,-0.33026
2817.2,0.0932539999999998
2818.4,0
2819.5,-0.693452
2820.7,1.49414
2821.8,2.056948
2823,1.19677
2824.1,-1.36292
2825.3,0.825386
2826.4,2.39642
2827.6,-3.278476
2828.7,-0.48582
2829.9,0.99946
2831,0.596188
2832.2,0.6176
2833.3,-0.59768
2834.5,0.15032
2835.6,0.064434
2836.8,0.470134
2837.9,-3.729656
2839.1,0.27746
2840.2,-1.628588
2841.4,0.85162
2842.5,2.068268
2843.7,-1.24324
2844.8,-0.008792
2845.9,0.256606
2847.1,-0.20816
2848.2,1.7598444
2849.4,-0.078952
2850.5,1.749634
2851.7,-1.421766
2852.8,1.92154
2853.9,3.88894
2855.1,-0.8164148
2856.2,1.462172
2857.3,1.852254
2858.5,1.057838
2859.6,0.926204
2860.7,0.26038
2861.9,0.225504
2863,-0.14766
2864.1,-1.390876
2865.3,1.13702
2866.4,-3.09048
2867.5,3.665328
2868.7,1.32504
2869.8,1.16774
2870.9,-0.12124
2872,-1.734386
2873.2,0.562834
2874.3,1.1582
2875.4,0.422354
2876.5,-0.42503
2877.7,1.20476
2878.8,-0.832556
2879.9,-0.178678
2881,0.167912
2882.2,3.95248
2883.3,3.28768
2884.4,1.5285
2885.5,3.211616
2886.6,2.756406
2887.8,-2.923484
2888.9,2.662796
2890,5.30216
2891.1,6.65342
2892.2,3.443776
2893.3,-0.334302
2894.4,4.344974
2895.6,4.171542
2896.7,6.202372
2897.8,5.94142
2898.9,7.05564
2900,6.50178
2901.1,6.60086
2902.2,4.6174
2903.3,5.571124
2904.4,4.71638
2905.6,4.8002
2906.7,3.21776
2907.8,6.88962
2908.9,5.8132586
2910,8.28678
2911.1,8.59134
2912.2,9.90008
2913.3,7.56582
2914.4,6.89792
2915.5,5.463246
2916.6,8.12132
2917.7,9.6348
2918.8,10.48942
2919.9,10.648
2921,11.92078
2922.1,11.78144
2923.2,12.79884
2924.3,13.0156
2925.4,10.13538
2926.5,15.267
2927.6,12.334
2928.7,11.94464
2929.8,12.59194
2930.8,12.36156
2931.9,13.033
2933,15.6404
2934.1,15.7784
2935.2,15.56058
2936.3,13.4689306
2937.4,14.022
2938.5,15.18428
2939.6,13.69422
2940.6,14.6954
2941.7,16.1764
2942.8,18.1116
2943.9,18.658
2945,17.0218
2946.1,17.8808
2947.2,16.507
2948.2,18.9052
2949.3,20.4578
2950.4,19.032
2951.5,18.38292
2952.6,16.306
2953.6,18.6668
2954.7,19.3042
2955.8,17.8438
2956.9,21.71
2957.9,20.3868
2959,17.4424
2960.1,18.38406
2961.2,17.0378
2962.2,21.80228
2963.3,19.6104
2964.4,19.6472
2965.5,23.234
2966.5,21.3442
2967.6,20.3662
2968.7,20.0248
2969.7,18.729
2970.8,19.9258
2971.9,22.6588
2973,23.5938
2974,22.0046
2975.1,25.8942
2976.2,23.2318
2977.2,23.6736
2978.3,24.0882
2979.3,24.3346
2980.4,27.53
2981.5,26.1634
2982.5,25.1888
2983.6,24.3412
2984.7,24.5434
2985.7,26.0782
2986.8,26.9974
2987.8,27.9404
2988.9,30.0488
2989.9,32.0062
2991,29.4744
2992.1,31.4188
2993.1,34.2312
2994.2,30.1288
2995.2,32.3324
2996.3,32.2944
2997.3,33.209
2998.4,35.332
2999.4,34.1392
3000.5,34.2496
3001.5,34.2964
3002.6,33.0642
3003.6,32.852
3004.7,37.8582
3005.7,40.0434
3006.8,38.5238
3007.8,41.8896
3008.9,39.0506
3009.9,42.0742
3011,42.624
3012,42.8264
3013,42.7958
3014.1,43.9554
3015.1,45.6972
3016.2,45.6414
3017.2,46.11
3018.2,48.3244
3019.3,47.5158
3020.3,49.8466
3021.4,50.2054
3022.4,50.855
3023.4,53.6202
3024.5,54.2486
3025.5,52.639
3026.5,54.8664
3027.6,56.1438
3028.6,59.2322
3029.6,57.559
3030.7,58.8452
3031.7,57.8924
3032.7,61.9254
3033.8,62.563
3034.8,61.571
3035.8,66.9572
3036.9,65.5028
3037.9,67.768
3038.9,66.6954
3039.9,68.1466
3041,70.5486
3042,72.0384
3043,70.4358
3044,70.392
3045.1,71.3278
3046.1,72.6654
3047.1,78.7394
3048.1,79.1116
3049.2,76.9792
3050.2,80.834
3051.2,84.0188
3052.2,83.5234
3053.2,84.2066
3054.3,81.807
3055.3,84.0434
3056.3,85.3316
3057.3,87.8298
3058.3,86.739
3059.3,89.6032
3060.3,94.354
3061.4,93.2686
3062.4,95.2804
3063.4,94.2618
3064.4,96.2772
3065.4,100.0942
3066.4,102.834
3067.4,101.8522
3068.4,103.8238
3069.5,104.2818
3070.5,102.601
3071.5,106.496
3072.5,106.162
3073.5,107.828
3074.5,110.412
3075.5,112.236
3076.5,113.54
3077.5,112.26
3078.5,116.228
3079.5,119.35
3080.5,121.75
3081.5,122.154
3082.5,120.11
3083.5,122.11
3084.5,129.514
3085.5,125.478
3086.5,128.686
3087.5,131.61
3088.5,129.82
3089.5,134.23
3090.5,132.434
3091.5,135.59
3092.5,137.46
3093.5,139.252
3094.5,139.948
3095.5,141.71
3096.4,144.566
3097.4,145.004
3098.4,144.448
3099.4,148.342
3100.4,155.576
3101.4,156.33
3102.4,155.646
3103.4,156.654
3104.4,150.438
3105.3,161.956
3106.3,162.608
3107.3,164.354
3108.3,165.954
3109.3,167.362
3110.3,170.204
3111.3,167.01
3112.2,174.322
3113.2,179.346
3114.2,178.132
3115.2,179.25
3116.2,184.176
3117.1,182.94
3118.1,183.81
3119.1,189.676
3120.1,185.714
3121,188.484
3122,193.25
3123,191.652
3124,195.28
3124.9,201.74
3125.9,197.978
3126.9,203.186
3127.9,203.594
3128.8,204.794
3129.8,208.758
3130.8,208.096
3131.7,209.886
3132.7,210.568
3133.7,213.08
3134.7,213.186
3135.6,216.556
3136.6,217.192
3137.6,218.654
3138.5,219.222
3139.5,226.116
3140.4,221.502
3141.4,225.036
3142.4,221.322
3143.3,226.004
3144.3,226.874
3145.3,227.536
3146.2,231.74
3147.2,231.924
3148.1,236.13
3149.1,234.894
3150.1,235.822
3151,238.208
3152,239.754
3152.9,236.47
3153.9,235.896
3154.8,244.018
3155.8,244.718
3156.7,246.368
3157.7,245.844
3158.6,250.176
3159.6,247.858
3160.6,250.392
3161.5,248.552
3162.5,251.86
3163.4,252.712
3164.4,250.716
3165.3,249.164
3166.2,254.314
3167.2,254.926
3168.1,251.952
3169.1,255.88
3170,254.748
3171,255.884
3171.9,255.056
3172.9,256.708
3173.8,258.928
3174.7,259.916
3175.7,255.992
3176.6,256.636
3177.6,259.68
3178.5,256.684
3179.5,258.954
3180.4,259.746
3181.3,258.704
3182.3,260.296
3183.2,259.798
3184.1,258.634
3185.1,261.232
3186,258.694
3186.9,263.33
3187.9,261.826
3188.8,262.588
3189.7,258.58
3190.7,258.918
3191.6,261.12
3192.5,261.558
3193.5,259.904
3194.4,260.504
3195.3,259.642
3196.3,258.76
3197.2,259.126
3198.1,256.462
3199,253.448
3200,255.394
3200.9,253.856
3201.8,253.802
3202.7,253.344
3203.7,250.138
3204.6,251.166
3205.5,252.936
3206.4,247.08
3207.3,251.528
3208.3,249.86
3209.2,242.536
3210.1,244.946
3211,240.524
3211.9,239.736
3212.9,236.312
3213.8,234.458
3214.7,230.95
3215.6,232.554
3216.5,228.068
3217.4,229.43
3218.4,227.166
3219.3,225.734
3220.2,223.604
3221.1,220.746
3222,216.724
3222.9,210.622
3223.8,209.826
3224.7,211.848
3225.6,206.02
3226.6,209.59
3227.5,205.55
3228.4,205.304
3229.3,198.018
3230.2,199.684
3231.1,190.106
3232,188.67
3232.9,181.25
3233.8,181.266
3234.7,180.44
3235.6,172.542
3236.5,170.416
3237.4,166.568
3238.3,163.3
3239.2,159.488
3240.1,155.184
3241,154.436
3241.9,148.596
3242.8,145.374
3243.7,130.76
3244.6,131.56
3245.5,126.65
3246.4,120.034
3247.3,114.02
3248.2,106.5426
3249.1,98.874
3250,88.507
3250.9,76.9014
3251.8,68.9962
3252.7,56.9502
3253.5,41.4106
3254.4,27.2428
3255.3,10.46198
3256.2,-7.23784
