250.34,-5.936024
252.57,-2.870402
254.8,0
257.03,-7.8046
259.26,-2.80113
261.48,-0.77636
263.71,1.88194
265.94,2.53184
268.16,7.48452
270.39,-2.841374
272.61,3.0642306
274.84,3.84294
277.06,-1.818214
279.28,2.566418
281.51,4.37378
283.73,5.61564
285.95,2.60092
288.17,5.332484
290.39,6.49716
292.61,2.75398
294.83,-2.588856
297.05,0.884928
299.27,4.502508
301.48,8.32321
303.7,10.263
305.91,9.9278
308.13,6.293162
310.35,4.62652
312.56,2.9131
314.77,4.14686
316.99,-4.65948
319.2,0.37238
321.41,-4.49702
323.62,-4.55136
325.83,0.0691614
328.04,1.42732
330.25,-0.69417
332.46,-2.33828
334.67,-1.18606
336.88,7.24342
339.08,5.471084
341.29,17.0804
343.5,30.5706
345.7,65.015
347.91,127.8462
350.11,294.846
352.31,551.294
354.52,710.084
356.72,627.21
358.92,398.996
361.12,222.668
363.32,121.4688
365.52,76.0598
367.72,57.0842
369.92,41.1644
372.12,34.7374
374.32,43.3568
376.51,69.4858
378.71,79.424
380.9,66.8708
383.1,40.741
385.29,16.56932
387.49,13.03832
389.68,6.5555
391.87,-1.485176
394.07,1.174208
396.26,-1.030384
398.45,-0.1373
400.64,6.378762
402.83,16.72492
405.02,18.42884
407.21,33.8806
409.39,63.8208
411.58,152.736
413.77,398.186
415.95,671.832
418.14,700
420.32,455.06
422.51,223.936
424.69,123.564
426.87,89.8324
429.06,81.5726
431.24,70.7422
433.42,54.0938
435.6,25.3478
437.78,10.32572
439.96,9.57354
442.14,-0.174751
444.31,10.39514
446.49,34.4766
448.67,45.2826
450.84,36.4824
453.02,20.97
455.19,1.743196
457.37,5.8956
459.54,-4.52769
461.71,3.52168
463.89,1.97994
466.06,-2.47331
468.23,-5.1300212
470.4,-5.21248
472.57,-8.83408
474.74,-9.533528
476.91,-11.54416
479.07,-2.1362
481.24,7.29532
483.41,6.51986
485.57,6.02
487.74,6.35342
489.9,12.15746
492.07,2.338846
494.23,-1.1768432
496.4,-4.38054
498.56,-1.94702
500.72,-7.50804
502.88,-9.22168
505.04,-9.815856
507.2,-8.52622
509.36,-2.410226
511.52,-6.67636
513.68,-2.30667
515.83,0.48432
517.99,-1.03926
520.14,0.34792
522.3,-6.591744
524.45,0.367774
526.61,-0.85076
528.76,3.8971
530.91,5.44716
533.07,9.6163
535.22,2.153392
537.37,2.400174
539.52,8.38546
541.67,3.112046
543.82,0.3441
545.97,2.303698
548.11,1.13324
550.26,-0.185802
552.41,0.85538
554.55,-5.21558
556.7,-1.89986
558.84,-3.936212
560.98,9.01168
563.13,11.25696
565.27,16.7628
567.41,29.363
569.55,52.2638
571.69,83.2836
573.83,158.23
575.97,230.142
578.11,296.054
580.25,405.238
582.39,761.846
584.52,1409.4
586.66,1901.54
588.79,1780.46
590.93,1194.824
593.06,658.538
595.19,342.934
597.33,186.916
599.46,104.6142
601.59,55.3182
603.72,32.7216
605.85,15.24288
607.98,0.0061366
610.11,1.60094
612.24,-3.676196
614.36,-8.9838
616.49,-12.68402
618.62,-5.67529
620.74,-0.96756
622.87,7.36284
624.99,0.338184
627.11,-2.27056
629.24,-4.391064
631.36,-7.88242
633.48,4.06214
635.6,1.20359
637.72,0.2612456
639.84,7.199734
641.96,-0.0127658
644.08,0.63602
646.2,-1.8701
648.31,-8.2321
650.43,-5.82742
652.54,-9.27352
654.66,-11.52712
656.77,-6.34248
658.89,-9.920178
661,-10.7183
663.11,-9.953272
665.22,-16.1508
667.33,-16.91125
669.44,-28.7314
671.55,-20.88928
673.66,-22.0356
675.77,-30.3792
677.88,-31.3852
679.98,-27.9476
682.09,-26.4792
684.2,-19.86614
686.3,-21.1888
688.4,-23.11826
690.51,-16.01326
692.61,-12.58002
694.71,-13.26346
696.81,-7.342204
698.92,-4.92594
701.02,-7.37632
703.11,-2.987708
705.21,0.47632
707.31,-1.297138
709.41,1.361922
711.51,6.24762
713.6,9.733574
715.7,7.046114
717.79,4.8463
719.89,4.000558
721.98,5.54314
724.07,3.597426
726.16,3.80314
728.25,6.09954
730.35,9.41248
732.44,18.39402
734.52,31.2918
736.61,42.9702
738.7,65.2818
740.79,94.7016
742.87,135.772
744.96,180.396
747.05,239.502
749.13,270.808
751.21,262.982
753.3,227.742
755.38,167.488
757.46,121.708
759.54,84.3448
761.62,59.167
763.7,38.9702
765.78,27.7014
767.86,15.34314
769.94,9.53136
772.01,1.99362
774.09,-0.983664
776.17,2.7254
778.24,-1.81982
780.32,-1.387764
782.39,-5.09354
784.46,0.408378
786.53,6.182936
788.61,9.18996
790.68,8.98002
792.75,6.44586
794.82,10.40756
796.89,13.7257
798.95,7.77776
801.02,11.5497
803.09,17.09968
805.15,21.6726
807.22,39.2444
809.28,91.189
811.35,220.164
813.41,341.916
815.47,338.022
817.53,214.794
819.6,110.0802
821.66,59.3566
823.72,30.17
825.78,15.168542
827.83,12.29944
829.89,10.18217
831.95,11.9862
834,8.92842
836.06,7.512
838.12,9.48276
840.17,7.39764
842.22,8.13064
844.28,8.8718
846.33,9.37644
848.38,11.20942
850.43,5.36276
852.48,6.87408
854.53,3.40792
856.58,7.42212
858.63,8.28666
860.67,3.777132
862.72,4.69934
864.77,8.2882
866.81,7.39984
868.86,-1.319672
870.9,-0.77836
872.94,3.5400402
874.98,-0.9667258
877.03,0.52776
879.07,3.055268
881.11,2.03522
883.15,1.82952
885.19,2.762878
887.22,2.3904
889.26,1.765376
891.3,5.54878
893.33,2.42528
895.37,-3.10644
897.4,-2.8358
899.44,0
901.47,-0.79449
903.5,4.21684
905.54,3.698766
907.57,4.00796
909.6,2.619134
911.63,-1.54648
913.66,2.2444
915.68,3.73236
917.71,0.163302
919.74,5.03496
921.76,0.9766
923.79,-6.86512
925.82,2.03258
927.84,5.9019
929.86,9.58314
931.89,8.44512
933.91,5.95574
935.93,5.7658
937.95,1.83644
939.97,0.92502
941.99,2.07136
944.01,0.15218
946.02,2.03232
948.04,-2.416742
950.06,-0.922438
952.07,-3.0228
954.09,-4.28862
956.1,4.63228
958.12,4.8794
960.13,3.72298
962.14,1.832700144
964.15,-0.76498
966.16,-1.497152
968.17,-6.2076
970.18,0.610668
972.19,-0.843548
974.2,1.85338
976.2,3.532596
978.21,5.19662
980.22,2.599058
982.22,5.8936
984.22,7.76768
986.23,10.075048
988.23,4.28152
990.23,6.298218
992.23,7.58526
994.24,6.59398544
996.23,4.79694
998.23,8.18348
1000.2,14.56006
1002.2,12.18522
1004.2,15.7576
1006.2,15.8644
1008.2,17.86414
1010.2,12.6343
1012.2,20.4408
1014.2,18.4218
1016.2,20.9318
1018.2,23.2028
1020.2,20.5606
1022.2,26.272
1024.2,28.7392
1026.1,41.0214
1028.1,54.6508
1030.1,108.5282
1032.1,208.82
1034.1,289.694
1036.1,257.05
1038.1,160.37
1040.1,86.1426
1042,55.7638
1044,36.7162
1046,30.464
1048,31.6898
1050,30.0746
1051.9,26.4748
1053.9,26.771
1055.9,22.4018
1057.9,24.7678
1059.9,22.415
1061.8,20.2098
1063.8,19.4872
1065.8,15.645
1067.8,16.59262
1069.7,10.02896
1071.7,13.92078
1073.7,12.1317
1075.6,16.3832
1077.6,16.21
1079.6,13.60464
1081.5,17.09892
1083.5,9.74124
1085.5,5.48872
1087.5,4.401
1089.4,3.926968
1091.4,4.44328
1093.3,7.58186
1095.3,4.12408
1097.3,3.49454
1099.2,7.12824
1101.2,1.502686
1103.2,4.92128
1105.1,0.59183
1107.1,-0.519398
1109,2.668858
1111,-0.16848
1113,0.09298
1114.9,-0.24832
1116.9,0.43378
1118.8,-4.3144566
1120.8,6.54728
1122.7,5.16924
1124.7,7.82858
1126.6,5.901922
1128.6,7.2872
1130.5,4.26478
1132.5,4.4355
1134.4,4.31806
1136.4,8.55754
1138.3,11.41894
1140.3,9.27702
1142.2,11.45992
1144.2,11.61214
1146.1,10.63202
1148.1,6.272056
1150,14.05064
1151.9,11.10424
1153.9,13.08238
1155.8,12.40824
1157.8,13.7206
1159.7,13.20456
1161.6,14.9378
1163.6,18.7176
1165.5,16.5688
1167.5,17.731
1169.4,20.2654
1171.3,26.0774
1173.3,24.8456
1175.2,19.852
1177.1,15.7854
1179.1,23.0316
1181,22.9182
1182.9,25.2438
1184.9,23.1482
1186.8,28.2846
1188.7,25.1408
1190.6,29.1828
1192.6,34.2518
1194.5,38.1114
1196.4,36.4902
1198.4,31.018
1200.3,36.5496
1202.2,37.2154
1204.1,33.7474
1206,39.3048
1208,41.2532
1209.9,45.2782
1211.8,49.9736
1213.7,52.4962
1215.6,50.3316
1217.6,50.6782
1219.5,54.5528
1221.4,50.4992
1223.3,53.9166
1225.2,52.5034
1227.1,47.681
1229.1,55.3096
1231,53.3348
1232.9,58.1758
1234.8,60.5538
1236.7,62.7552
1238.6,65.143
1240.5,69.8686
1242.4,76.2974
1244.3,83.7206
1246.2,91.3312
1248.1,88.1038
1250.1,88.2146
1252,91.6206
1253.9,106.216
1255.8,112.796
1257.7,117.974
1259.6,139.242
1261.5,156.242
1263.4,179.132
1265.3,202.934
1267.2,224.226
1269.1,241.21
1271,272.51
1272.9,290.582
1274.8,296.206
1276.6,299.23
1278.5,293.054
1280.4,290.826
1282.3,328.254
1284.2,356.496
1286.1,325.676
1288,242.616
1289.9,186.402
1291.8,151.98
1293.7,130.788
1295.6,114.052
1297.4,111.016
1299.3,102.311
1301.2,100.5336
1303.1,98.5534
1305,90.387
1306.9,88.4482
1308.7,88.9982
1310.6,86.1056
1312.5,79.8298
1314.4,80.3666
1316.3,83.0256
1318.1,81.8198
1320,82.0046
1321.9,78.067
1323.8,79.399
1325.7,75.3674
1327.5,76.4092
1329.4,79.6642
1331.3,78.3834
1333.1,78.6844
1335,75.8474
1336.9,77.2062
1338.8,86.8804
1340.6,85.2604
1342.5,85.7782
1344.4,89.5544
1346.2,98.463
1348.1,101.8456
1350,103.8628
1351.8,110.952
1353.7,117.892
1355.6,119.242
1357.4,128.56
1359.3,135.698
1361.1,141.526
1363,156.488
1364.9,181.176
1366.7,202.636
1368.6,233.486
1370.4,270.428
1372.3,329.218
1374.2,404.06
1376,517.868
1377.9,660.19
1379.7,807.326
1381.6,915.674
1383.4,967.514
1385.3,975.688
1387.1,905.338
1389,749.9
1390.8,544.426
1392.7,392.2
1394.5,310.222
1396.4,251.064
1398.2,216.022
1400.1,189.52
1401.9,163.556
1403.8,147.914
1405.6,133.974
1407.4,128.16
1409.3,114.27
1411.1,95.276
1413,76.6586
1414.8,62.7298
1416.6,59.5964
1418.5,48.3592
1420.3,41.6924
1422.2,37.5024
1424,30.994
1425.8,26.2188
1427.7,27.79
1429.5,24.213
1431.3,21.6316
1433.2,14.71066
1435,11.76524
1436.8,13.26864
1438.7,12.76774
1440.5,7.13026616
1442.3,3.05382
1444.1,7.183364
1446,5.85746
1447.8,4.92758
1449.6,5.44172
1451.4,-0.2712762
1453.3,2.750242
1455.1,0.42731
1456.9,-0.238706
1458.7,-4.282132
1460.6,1.653138
1462.4,-0.0948
1464.2,0.43566
1466,-9.8837
1467.8,-1.11444
1469.6,-4.6666
1471.5,-7.02888
1473.3,-5.940088
1475.1,-6.03076
1476.9,-10.38408
1478.7,-3.88168
1480.5,-5.78602
1482.4,-4.41376
1484.2,-5.101168
1486,-6.05562
1487.8,-6.3427
1489.6,-3.014182
1491.4,-3.919092
1493.2,-8.10504
1495,-6.53044
1496.8,-3.75362
1498.6,-3.62054
1500.4,-4.865306
1502.2,-5.233891
1504,-2.97882
1505.8,-0.886754
1507.6,-1.033468
1509.4,-3.8528
1511.2,-2.28094
1513,-3.1338
1514.8,-1.20714
1516.6,-2.250218
1518.4,-2.958118
1520.2,-4.36822
1522,-2.0877
1523.8,-3.361412
1525.6,-4.407144
1527.4,-0.896336
1529.2,-5.5676
1531,1.255876
1532.8,-6.8745
1534.6,-2.0206
1536.4,0.42288
1538.2,-0.229448
1539.9,1.329
1541.7,4.00682
1543.5,2.93477
1545.3,5.10592
1547.1,3.67962
1548.9,10.957928
1550.7,20.1766
1552.4,23.8608
1554.2,33.173
1556,34.517
1557.8,30.2644
1559.6,21.0542
1561.3,26.8984
1563.1,27.3448
1564.9,31.4264
1566.7,32.3704
1568.4,37.5474
1570.2,40.181
1572,42.119
1573.8,45.9482
1575.5,52.349
1577.3,61.116
1579.1,63.3788
1580.9,70.2296
1582.6,74.211
1584.4,78.051
1586.2,88.2002
1587.9,90.0656
1589.7,90.285
1591.5,99.5134
1593.2,108.446
1595,111.9182
1596.8,121.84
1598.5,125.696
1600.3,133.526
1602,140.656
1603.8,147.556
1605.6,160.374
1607.3,166.754
1609.1,173.184
1610.8,182.892
1612.6,186.592
1614.4,195.838
1616.1,201.53
1617.9,207.158
1619.6,216.11
1621.4,219.282
1623.1,226.996
1624.9,235.678
1626.6,238.734
1628.4,244.4
1630.1,251.07
1631.9,252.27
1633.6,254.898
1635.4,256.538
1637.1,261.174
1638.9,259.758
1640.6,260.136
1642.4,259.952
1644.1,259.58
1645.8,261.552
1647.6,262.614
1649.3,259.722
1651.1,255.12
1652.8,255.312
1654.6,251.836
1656.3,244.928
1658,245.088
1659.8,236.692
1661.5,242.03
1663.2,233.332
1665,226.754
1666.7,222.6
1668.4,218.482
1670.2,211.164
1671.9,209.89
1673.6,205.12
1675.4,197.978
1677.1,191.25
1678.8,188.848
1680.5,182.136
1682.3,177.248
1684,169.266
1685.7,164.368
1687.5,165.898
1689.2,154.532
1690.9,153.946
1692.6,150.558
1694.3,146.944
1696.1,142.384
1697.8,139.25
1699.5,133.846
1701.2,131.436
1702.9,130.11
1704.7,123.216
1706.4,126.848
1708.1,118.026
1709.8,119.712
1711.5,117.126
1713.2,107.586
1714.9,107.288
1716.7,107.3326
1718.4,104.518
1720.1,97.0256
1721.8,95.9106
1723.5,91.4772
1725.2,83.4452
1726.9,84.5298
1728.6,77.8224
1730.3,77.0676
1732,76.1168
1733.7,72.3268
1735.4,67.2522
1737.1,64.9212
1738.8,58.9436
1740.6,52.3044
1742.3,51.129
1744,46.1342
1745.7,39.947
1747.3,39.3534
1749,31.5924
1750.7,35.1968
1752.4,27.1606
1754.1,26.4012
1755.8,27.9524
1757.5,20.0092
1759.2,19.4936
1760.9,21.28324
1762.6,15.9918
1764.3,17.0262
1766,13.28184
1767.7,13.65542
1769.4,18.77854
1771.1,12.76948
1772.7,13.8513
1774.4,8.89362
1776.1,10.61526
1777.8,8.58872
1779.5,6.61724
1781.2,4.922172
1782.8,8.29896
1784.5,5.3085
1786.2,4.23796
1787.9,0.206688
1789.6,4.01158
1791.2,0.78522
1792.9,2.93604
1794.6,2.243033
1796.3,-2.9624942
1798,0.7860728
1799.6,-0.16248
1801.3,-2.5846
1803,2.384608
1804.7,-3.39254
1806.3,-3.388088
1808,-4.05858
1809.7,-3.295404
1811.3,-3.705752
1813,0.85292
1814.7,-0.994072
1816.3,-0.6635
1818,-2.553576
1819.7,-1.403348
1821.3,0.9596994
1823,-2.360486
1824.7,-3.71338
1826.3,-1.671328
1828,-5.11516
1829.7,1.47892
1831.3,-0.394556
1833,-3.18118
1834.6,0.6530838
1836.3,-3.430814
1838,-0.620458
1839.6,0.51368
1841.3,-0.037014
1842.9,0.0287879999999999
1844.6,2.84914
1846.2,3.1029
1847.9,-2.1799348
1849.5,1.29744
1851.2,2.35062
1852.8,0.3653
1854.5,1.18154
1856.1,7.18152
1857.8,2.311038
1859.4,2.549904
1861.1,2.67884
1862.7,-2.731297
1864.4,0.92138
1866,0.766814
1867.7,-1.065104
1869.3,0.311194
1871,-0.011396
1872.6,5.14394
1874.2,4.29088
1875.9,3.73972
1877.5,0.11444
1879.2,0
1880.8,0.127966
1882.4,-4.71046
1884.1,-4.60778
1885.7,-3.2768124
1887.3,-2.05206
1889,0.421996
1890.6,-3.983436
1892.2,0.71686
1893.9,-1.56172
1895.5,-7.760044
1897.1,-2.4452
1898.8,-0.7406
1900.4,0.25792
1902,-2.1367
1903.7,-0.0792799999999997
1905.3,-2.8348762
1906.9,-3.972062
1908.5,-2.81592
1910.2,-3.391184
1911.8,-4.41836
1913.4,-2.272864
1915,-2.17785
1916.7,-1.63516
1918.3,-1.973598
1919.9,-0.57766
1921.5,-3.49216
1923.1,-3.124306
1924.8,-4.1919
1926.4,-6.58992
1928,-4.63654
1929.6,-3.710298
1931.2,0.509506
1932.8,-1.590426
1934.4,-1.72138
1936.1,0.2965
1937.7,-1.16926
1939.3,0.835092
1940.9,-0.87958
1942.5,-1.36656
1944.1,-1.47522
1945.7,-2.06958
1947.3,-2.085806
1948.9,-1.26772
1950.5,-0.00541999999999998
1952.1,0.000237999999999991
1953.8,-1.43416
1955.4,-1.80722
1957,-1.41922
1958.6,-3.198002
1960.2,-2.675732
1961.8,1.858604
1963.4,-3.74344
1965,2.15818
1966.6,1.37389
1968.2,-2.525022
1969.8,3.14528
1971.4,3.190852
1973,2.436192
1974.5,0.152126
1976.1,-1.78468
1977.7,-3.70694
1979.3,-2.596418
1980.9,-2.706726
1982.5,-7.328312
1984.1,-0.46538
1985.7,-1.846878
1987.3,2.09086
1988.9,0.99052
1990.5,0.311602
1992,-6.32678
1993.6,-1.102736
1995.2,1.880196
1996.8,-1.487364
1998.4,1.926124
2000,-0.104874
2001.6,0.434332
2003.1,2.49312
2004.7,2.131596
2006.3,4.835224
2007.9,-2.286932
2009.5,3.02624
2011,4.25222
2012.6,4.326296
2014.2,4.05923
2015.8,2.31486
2017.3,-0.868122
2018.9,-0.382634
2020.5,2.03623
2022.1,6.585732
2023.6,3.5460602
2025.2,1.44694
2026.8,2.00881
2028.3,0.96058
2029.9,4.10804
2031.5,1.39462
2033,-1.155786
2034.6,1.74224
2036.2,-2.5656826
2037.7,2.0971
2039.3,4.22062
2040.9,2.0717
2042.4,3.60128
2044,1.0892
2045.6,1.579196
2047.1,2.194434
2048.7,1.76516
2050.2,1.72793
2051.8,4.205282
2053.4,1.96146
2054.9,3.88498
2056.5,-1.291386
2058,-0.375396
2059.6,0.9199
2061.1,1.987042
2062.7,3.475648
2064.2,1.294536
2065.8,1.66222
2067.3,0.94734
2068.9,3.03904
2070.4,3.694522
2072,-2.8061
2073.5,-1.796038
2075.1,-1.5345502
2076.6,-1.72567
2078.2,1.423678
2079.7,3.471372
2081.3,4.37864
2082.8,6.57504
2084.4,5.5711284
2085.9,2.875012
2087.4,1.8613
2089,1.640877
2090.5,8.6061
2092.1,6.86902
2093.6,5.96336
2095.1,3.78382
2096.7,3.69938
2098.2,8.70588
2099.7,8.015444
2101.3,6.427958
2102.8,5.04134
2104.3,3.651316
2105.9,7.611678
2107.4,6.83634
2108.9,9.94102
2110.5,6.81422
2112,6.020388
2113.5,6.616324
2115.1,4.396684
2116.6,6.28516
2118.1,6.935832
2119.6,8.66642
2121.2,5.976688
2122.7,7.82464
2124.2,5.594984
2125.7,7.71632
2127.3,5.34236
2128.8,6.9463794
2130.3,11.98756
2131.8,15.69616
2133.3,20.5068
2134.9,32.8228
2136.4,43.409
2137.9,62.3766
2139.4,79.1946
2140.9,90.8008
2142.4,81.2812
2144,59.018
2145.5,36.8184
2147,22
2148.5,17.2196
2150,11.32876
2151.5,9.75246
2153,3.7667
2154.5,7.64162
2156,-1.19582
2157.6,2.85466
2159.1,-0.67156
2160.6,2.686486
2162.1,1.773384
2163.6,-0.296516
2165.1,0.249376
2166.6,-0.3587248
2168.1,-0.463262
2169.6,-7.53038
2171.1,2.18564
2172.6,1.675124
2174.1,2.471064
2175.6,5.07684
2177.1,-0.30416
2178.6,-0.615376
2180.1,-2.254504
2181.6,-2.95208
2183.1,-1.913762
2184.6,-1.037512
2186.1,-1.79066
2187.5,-1.9658
2189,-1.878098
2190.5,1.3111662
2192,-3.37836
2193.5,-3.194068
2195,1.68606
2196.5,-2.66826
2198,-0.30292
2199.5,-4.45944
2201,-1.870024
2202.4,-3.86822
2203.9,-2.36274
2205.4,-3.6975
2206.9,-2.937356
2208.4,-2.58308
2209.9,-0.73464
2211.3,-1.767572
2212.8,-1.968812
2214.3,-2.139908
2215.8,-3.981976
2217.3,-1.93526
2218.7,-4.95682
2220.2,-3.394802
2221.7,-4.855844
2223.2,-2.707288
2224.6,-2.45049
2226.1,-2.35016
2227.6,-2.08857
2229.1,-5.19593
2230.5,-3.31974
2232,-2.70647
2233.5,-4.7782
2234.9,-2.688096
2236.4,-0.962458
2237.9,-0.39876
2239.3,-2.607762
2240.8,-2.54454
2242.3,-4.289432
2243.7,-0.23928
2245.2,-1.233398
2246.7,-3.132786
2248.1,-1.37153
2249.6,-5.756474
2251.1,-0.76992
2252.5,-0.84852
2254,-5.3143
2255.4,-1.112558
2256.9,-2.059708
2258.3,0.91166
2259.8,-1.0146
2261.3,-4.092524
2262.7,-1.84218
2264.2,-3.855784
2265.6,0.163276
2267.1,0.0322559999999999
2268.5,-2.5678144
2270,-0.73562
2271.4,0.73102
2272.9,-1.93904
2274.3,0
2275.8,-0.64672
2277.2,-0.429758
2278.7,-0.49272
2280.1,1.82122
2281.6,-1.04066
2283,-1.412202
2284.5,-0.427686
2285.9,-3.89815
2287.4,1.63686
2288.8,-0.103652
2290.2,-3.3397162
2291.7,1.08008
2293.1,1.7527666
2294.6,-3.24334
2296,3.124148
2297.4,3.0495
2298.9,0.996594
2300.3,0.16204
2301.7,0.58426
2303.2,2.2492
2304.6,-1.589738
2306,-1.747412
2307.5,1.18108
2308.9,2.190258
2310.3,0.33798
2311.8,1.13462
2313.2,1.627562
2314.6,2.97134
2316.1,2.657702
2317.5,2.75182
2318.9,0.966524
2320.3,4.94126
2321.8,5.191072
2323.2,8.7603
2324.6,12.71176
2326,16.9344
2327.5,27.655
2328.9,27.1318
2330.3,30.9922
2331.7,21.8814
2333.2,16.797
2334.6,10.98024
2336,8.4801
2337.4,6.27648
2338.8,2.291396
2340.2,3.49702
2341.7,5.1444168
2343.1,1.93975
2344.5,3.88745
2345.9,4.99456
2347.3,0.4013
2348.7,2.51822
2350.1,0.44112
2351.6,3.41808
2353,2.80368
2354.4,5.238016
2355.8,1.48784
2357.2,3.229832
2358.6,-5.75814
2360,5.56028
2361.4,6.37536
2362.8,4.898212
2364.2,7.35764
2365.6,0.305108
2367,10.72526
2368.4,7.72278
2369.8,6.4194
2371.2,9.16134
2372.6,3.9095
2374,3.963754
2375.4,2.17608
2376.8,6.81002
2378.2,7.196336
2379.6,8.168326
2381,10.83802
2382.4,7.51366
2383.8,7.21656
2385.2,6.69924
2386.6,3.480636
2388,6.47206
2389.4,3.31774
2390.8,2.3658
2392.1,2.035184
2393.5,4.40652
2394.9,5.629428
2396.3,1.608288
2397.7,4.93508
2399.1,5.16948
2400.5,2.552
2401.9,2.108278
2403.2,1.939393
2404.6,2.92224
2406,3.183744
2407.4,3.83588
2408.8,2.37684
2410.2,4.13884
2411.5,0.95442
2412.9,0.0306799999999999
2414.3,3.45382
2415.7,0
2417,4.17784
2418.4,0.623638
2419.8,1.5096656
2421.2,3.71186
2422.5,1.80354
2423.9,2.57329
2425.3,4.92326
2426.7,3.118
2428,0.4858304
2429.4,0.84258
2430.8,-1.074682
2432.1,1.208982
2433.5,0.388858
2434.9,1.4718
2436.2,4.42422
2437.6,-2.000626
2439,3.6065
2440.3,2.92188
2441.7,4.473296
2443.1,1.822556
2444.4,2.116984
2445.8,2.017226
2447.2,3.266922
2448.5,0.61574
2449.9,2.3726752
2451.2,1.0832082
2452.6,-1.13024
2454,2.01374
2455.3,0.82183
2456.7,-0.841162
2458,1.248786
2459.4,0.323636
2460.7,1.3225
2462.1,-0.499716
2463.4,-0.34976
2464.8,2.774204
2466.1,1.1456
2467.5,-1.761448
2468.8,2.44554
2470.2,1.953512
2471.5,1.81784
2472.9,3.060284
2474.2,-0.8751944
2475.6,3.179666
2476.9,-0.163132
2478.3,1.521018
2479.6,-0.541486
2481,-0.84712
2482.3,1.659474
2483.6,-0.27386
2485,-0.299246
2486.3,-1.824066
2487.7,-0.32944
2489,-2.63674
2490.3,-2.81678
2491.7,1.5746452
2493,-2.579754
2494.4,1.94682
2495.7,0.01808
2497,-1.5029448
2498.4,-3.50452
2499.7,0.65808
2501,-1.24162
2502.4,-3.376164
2503.7,-1.143494
2505,-1.147228
2506.4,-4.1362
2507.7,-0.70368
2509,-1.4864
2510.3,-3.5855
2511.7,0.751522
2513,-4.14674
2514.3,-0.91183
2515.6,-2.7386
2517,-3.8238
2518.3,-1.9369438
2519.6,-1.00618
2520.9,0
2522.3,-1.005882
2523.6,-1.5679
2524.9,1.04052
2526.2,-5.27696
2527.5,-2.457308
2528.9,-4.3976
2530.2,-4.52042
2531.5,-1.326502
2532.8,-2.26
2534.1,-0.327968
2535.4,0.360116
2536.8,-3.12408
2538.1,0.5966
2539.4,0.20234
2540.7,-4.337254
2542,-5.55544
2543.3,-0.06725222
2544.6,-0.721344
2545.9,1.60884
2547.2,-3.545598
2548.6,-2.164708
2549.9,-2.217944
2551.2,-3.60038
2552.5,-2.445918
2553.8,-1.630242
2555.1,-1.31496
2556.4,0.542072
2557.7,-3.53311
2559,3.172178
2560.3,0.56438
2561.6,0.21639
2562.9,0.326746
2564.2,-1.018898
2565.5,-0.20828
2566.8,1.584914
2568.1,-0.762753
2569.4,1.9767
2570.7,2.20852
2572,1.9480132
2573.3,3.092902
2574.6,1.971142
2575.9,3.77812
2577.1,1.341836
2578.4,2.5198828
2579.7,0.76766
2581,0.456456
2582.3,0.600938
2583.6,4.598602
2584.9,1.35336
2586.2,4.3648
2587.5,1.7384
2588.7,0.491
2590,2.565524
2591.3,2.192134
2592.6,0.901806
2593.9,6.67322
2595.2,1.559856
2596.4,2.64954
2597.7,3.732574
2599,0.397634
2600.3,3.79115
2601.6,3.52138
2602.8,0.512822
2604.1,3.707612
2605.4,3.56798
2606.7,2.414446
2608,1.587812
2609.2,1.8222
2610.5,4.96636
2611.8,0.68748
2613,2.624388
2614.3,6.265454
2615.6,3.4296908
2616.9,2.86264
2618.1,3.50151
2619.4,4.15806
2620.7,-2.645282
2621.9,3.47784
2623.2,3.776414
2624.5,0.01398
2625.7,-0.176596
2627,-2.0287
2628.3,2.55842
2629.5,0
2630.8,1.598224
2632.1,-0.92345
2633.3,2.743564
2634.6,2.56304
2635.8,2.321322
2637.1,2.155866
2638.4,2.455796
2639.6,2.7209538
2640.9,-0.304912
2642.1,2.24902
2643.4,-1.06898
2644.6,0.41738
2645.9,0.8948
2647.2,-0.11212
2648.4,0.95285
2649.7,2.31426
2650.9,3.6235
2652.2,2.94954
2653.4,3.116276
2654.7,3.03242
2655.9,0.656552
2657.2,-0.44842
2658.4,0.660584
2659.7,2.46296
2660.9,2.7906472
2662.2,2.18098
2663.4,-0.946492
2664.6,3.952076
2665.9,-0.267336
2667.1,1.9835866
2668.4,-0.967054
2669.6,2.02812
2670.9,-0.542856
2672.1,1.781088
2673.3,-0.12474
2674.6,0.49528
2675.8,0.236
2677.1,2.081656
2678.3,1.4352546
2679.5,-0.449682
2680.8,1.31562
2682,-2.1096912
2683.2,2.702118
2684.5,3.529114
2685.7,3.0389
2686.9,3.78666
2688.2,1.92217
2689.4,2.302996
2690.6,1.133614
2691.9,-3.29042
2693.1,4.874372
2694.3,3.332086
2695.5,1.54393
2696.8,0.0438039999999999
2698,2.684272
2699.2,1.701463
2700.4,2.529372
2701.7,2.34882
2702.9,-1.997636
2704.1,0.424158
2705.3,0.75858
2706.6,-0.878734
2707.8,-0.130228
2709,-1.107022
2710.2,1.380394
2711.4,1.59586
2712.6,0.383178
2713.9,-2.100692
2715.1,1.1559508
2716.3,0.72156
2717.5,-0.353018
2718.7,-0.682726
2719.9,-0.0241199999999997
2721.2,0.457078
2722.4,0.940108
2723.6,-0.44426
2724.8,1.978112
2726,0
2727.2,-0.9854014
2728.4,2.8542884
2729.6,1.8787086
2730.8,0.72236
2732,-2.004762
2733.3,-0.40388
2734.5,1.37956
2735.7,-1.174866
2736.9,-3.431312
2738.1,1.17644
2739.3,-0.8702
2740.5,1.23974
2741.7,-1.609
2742.9,-1.49618
2744.1,0.424084
2745.3,0.33566
2746.5,-2.024158
2747.7,1.55552
2748.9,-0.925122
2750.1,-1.057216
2751.3,1.435248
2752.5,-0.09612
2753.7,-1.454722
2754.9,-1.190132
2756,-2.037342
2757.2,-4.65971
2758.4,-1.51428
2759.6,0.0592699999999999
2760.8,0.394952
2762,-3.08508
2763.2,-0.535182
2764.4,-3.7158
2765.6,0.42795
2766.8,-1.1605794
2767.9,-0.21354
2769.1,-2.968362
2770.3,-1.37708
2771.5,0.13958
2772.7,3.052852
2773.9,0.4489
2775.1,-3.2592
2776.2,-0.84238
2777.4,1.035492
2778.6,-0.87184
2779.8,-2.327472
2781,-2.985774
2782.1,-2.94309
2783.3,1.80381
2784.5,-3.97032
2785.7,-1.982122
2786.8,-2.2439
2788,-3.602582
2789.2,-2.221004
2790.4,-0.84024
2791.5,-3.35762
2792.7,-0.94539
2793.9,-2.5579
2795.1,-4.9076
2796.2,-0.922044
2797.4,-2.19266
2798.6,-1.994164
2799.7,-1.30182
2800.9,-1.51116
2802.1,1.39466
2803.2,-2.398138
2804.4,-0.66736
2805.6,-3.0321
2806.7,-0.369942
2807.9,-2.301662
2809.1,-0.187928
2810.2,1.15364
2811.4,-2.534986
2812.6,-2.453502
2813.7,-4.17674
2814.9,0.36258
2816,-1.66798
2817.2,-0.81712
2818.4,0
2819.5,1.847736
2820.7,0.353436
2821.8,0.51478
2823,-0.54578
2824.1,-0.870226
2825.3,-4.15214
2826.4,-1.422151
2827.6,0.203046
2828.7,1.36683
2829.9,1.048704
2831,0.530142
2832.2,2.23726
2833.3,0.84234
2834.5,-1.834894
2835.6,-0.485878
2836.8,0.936342
2837.9,-2.10712
2839.1,1.8027
2840.2,-0.739248
2841.4,-0.069286
2842.5,0.383954
2843.7,-1.38248
2844.8,0.292414
2845.9,1.65895
2847.1,-0.38692
2848.2,-0.0349839999999999
2849.4,0.62684
2850.5,1.11902
2851.7,-1.54916
2852.8,1.06528
2853.9,-0.486487872
2855.1,-1.874528
2856.2,1.17784
2857.3,-0.573944
2858.5,-0.716502
2859.6,0.47748
2860.7,0.53966
2861.9,-2.2017782
2863,0.554804
2864.1,-3.161442
2865.3,-1.880502
2866.4,0.0677440000000001
2867.5,-1.5905884
2868.7,2.637196
2869.8,1.937428
2870.9,2.032236
2872,-0.50532
2873.2,1.33699
2874.3,0.18154
2875.4,0.89162
2876.5,1.6076662
2877.7,2.26984
2878.8,2.59048
2879.9,0.859158
2881,-0.809392
2882.2,-0.865588
2883.3,-2.716728
2884.4,2.5267064
2885.5,-0.370806
2886.6,2.867512
2887.8,-1.39758
2888.9,-2.934298
2890,3.66324
2891.1,2.25864
2892.2,3.195454
2893.3,4.160574
2894.4,3.210586
2895.6,3.035614
2896.7,3.12194
2897.8,1.27814
2898.9,6.1226
2900,2.209308
2901.1,2.363238
2902.2,0.595058
2903.3,5.341622
2904.4,4.66478
2905.6,6.45102
2906.7,5.649874
2907.8,9.60606
2908.9,8.23312
2910,5.20326
2911.1,4.57616
2912.2,5.68084
2913.3,8.85248
2914.4,9.30794
2915.5,9.7702
2916.6,10.90792
2917.7,7.119566
2918.8,8.89262
2919.9,7.149
2921,11.1631
2922.1,10.0514
2923.2,10.3023
2924.3,11.7304
2925.4,10.59336
2926.5,17.7318
2927.6,15.49208
2928.7,12.09994
2929.8,17.7808
2930.8,16.11058
2931.9,14.75448
2933,16.8226
2934.1,13.9846
2935.2,14.98972
2936.3,12.49858
2937.4,16.2028
2938.5,17.7258
2939.6,14.42084
2940.6,20.1688
2941.7,19.3678
2942.8,16.6456
2943.9,19.8816
2945,15.83988
2946.1,17.0052
2947.2,18.2902
2948.2,22.3482
2949.3,20.9494
2950.4,18.1894
2951.5,18.2242
2952.6,20.6266
2953.6,18.5388
2954.7,18.9712
2955.8,20.9038
2956.9,19.5412
2957.9,16.8192
2959,18.0342
2960.1,19.4576
2961.2,15.4386
2962.2,19.38782
2963.3,18.9016
2964.4,17.4046
2965.5,20.101
2966.5,16.0322
2967.6,19.3892
2968.7,20.4218
2969.7,21.0366
2970.8,20.7335
2971.9,18.98468
2973,17.6847
2974,20.10326
2975.1,22.409
2976.2,19.8616
2977.2,22.6374
2978.3,22.1742
2979.3,22.56
2980.4,24.5092
2981.5,22.0016
2982.5,24.0562
2983.6,20.5764
2984.7,25.6876
2985.7,24.3594
2986.8,24.5864
2987.8,25.527
2988.9,25.5572
2989.9,23.2036
2991,26.8934
2992.1,31.3032
2993.1,28.2326
2994.2,27.3176
2995.2,30.5182
2996.3,27.3408
2997.3,30.4228
2998.4,34.1442
2999.4,30.4226
3000.5,32.5042
3001.5,35.0094
3002.6,32.0212
3003.6,30.344
3004.7,30.559
3005.7,33.312
3006.8,37.133
3007.8,34.5014
3008.9,36.0172
3009.9,36.8786
3011,40.2148
3012,39.3994
3013,39.1744
3014.1,42.0258
3015.1,40.3732
3016.2,39.5416
3017.2,42.1988
3018.2,43.1186
3019.3,41.909
3020.3,42.0992
3021.4,44.4372
3022.4,45.0344
3023.4,46.3368
3024.5,52.4076
3025.5,49.6144
3026.5,49.3076
3027.6,47.3376
3028.6,51.3446
3029.6,50.8286
3030.7,51.6136
3031.7,55.3828
3032.7,55.4544
3033.8,54.6814
3034.8,55.7346
3035.8,61.5032
3036.9,57.3892
3037.9,61.1172
3038.9,61.7146
3039.9,61.265
3041,62.6068
3042,63.9914
3043,63.523
3044,65.3764
3045.1,66.3024
3046.1,64.0734
3047.1,67.655
3048.1,69.9072
3049.2,71.7008
3050.2,68.4228
3051.2,71.8978
3052.2,74.0962
3053.2,72.9356
3054.3,75.745
3055.3,74.2072
3056.3,75.7372
3057.3,78.8716
3058.3,79.0224
3059.3,79.4694
3060.3,80.391
3061.4,83.5754
3062.4,79.3794
3063.4,85.6702
3064.4,82.7876
3065.4,91.4492
3066.4,89.8722
3067.4,90.3644
3068.4,90.8654
3069.5,92.3626
3070.5,92.2752
3071.5,94.6744
3072.5,96.5156
3073.5,95.984
3074.5,95.9304
3075.5,98.3966
3076.5,99.9526
3077.5,98.69
3078.5,100.6652
3079.5,105.3858
3080.5,104.0808
3081.5,105.1294
3082.5,109.428
3083.5,105.054
3084.5,111.582
3085.5,110.256
3086.5,110.156
3087.5,112.112
3088.5,113.312
3089.5,114.602
3090.5,114.948
3091.5,119.4
3092.5,118.252
3093.5,122.646
3094.5,124.682
3095.5,123.526
3096.4,126.724
3097.4,125.104
3098.4,124.112
3099.4,130.112
3100.4,132.928
3101.4,132.246
3102.4,135.918
3103.4,140.548
3104.4,134.746
3105.3,141.7
3106.3,141.394
3107.3,143.528
3108.3,144.588
3109.3,143.688
3110.3,145.86
3111.3,149.588
3112.2,147.914
3113.2,154.054
3114.2,154.192
3115.2,159.086
3116.2,162.294
3117.1,160.45
3118.1,158.474
3119.1,162.276
3120.1,162.334
3121,164.964
3122,166.248
3123,167.064
3124,169.298
3124.9,174.358
3125.9,172.07
3126.9,180.888
3127.9,179.834
3128.8,180.97
3129.8,180.458
3130.8,179.178
3131.7,178.782
3132.7,183.92
3133.7,186.18
3134.7,185.52
3135.6,187.51
3136.6,191.06
3137.6,190.884
3138.5,191.204
3139.5,196.888
3140.4,196.698
3141.4,200.192
3142.4,195.024
3143.3,200.924
3144.3,202.394
3145.3,198.726
3146.2,202.248
3147.2,206.838
3148.1,206.498
3149.1,208.27
3150.1,206.842
3151,211.872
3152,212.426
3152.9,212.332
3153.9,212.934
3154.8,216.746
3155.8,214.39
3156.7,216.084
3157.7,218.356
3158.6,224.066
3159.6,207.98
3160.6,219.552
3161.5,220.888
3162.5,219.368
3163.4,222.97
3164.4,225.166
3165.3,219.89
3166.2,224.166
3167.2,227.13
3168.1,226.956
3169.1,224.706
3170,228.808
3171,230.682
3171.9,229.932
3172.9,228.592
3173.8,233.782
3174.7,230.67
3175.7,229.83
3176.6,231.62
3177.6,228.954
3178.5,228.25
3179.5,232.454
3180.4,231.486
3181.3,229.834
3182.3,236.558
3183.2,232.278
3184.1,233.21
3185.1,233.002
3186,228.154
3186.9,236.542
3187.9,237.242
3188.8,236.668
3189.7,232.014
3190.7,236.846
3191.6,232.71
3192.5,234.358
3193.5,236.486
3194.4,234.832
3195.3,232.694
3196.3,233.016
3197.2,232.054
3198.1,231.392
3199,228.644
3200,229.49
3200.9,227.108
3201.8,231.078
3202.7,229.68
3203.7,227.892
3204.6,227.83
3205.5,226.948
3206.4,222.25
3207.3,227.616
3208.3,221.71
3209.2,216.774
3210.1,211.078
3211,217.966
3211.9,213.168
3212.9,212.726
3213.8,211.896
3214.7,208.612
3215.6,209.96
3216.5,209.028
3217.4,205.762
3218.4,201.026
3219.3,203.876
3220.2,197.902
3221.1,195.198
3222,195.578
3222.9,193.238
3223.8,189.258
3224.7,191.79
3225.6,186.686
3226.6,187.76
3227.5,184.944
3228.4,181.008
3229.3,176.494
3230.2,178.296
3231.1,175.506
3232,169.57
3232.9,164.72
3233.8,167.238
3234.7,159.884
3235.6,157.264
3236.5,152.944
3237.4,149.652
3238.3,149.566
3239.2,142.302
3240.1,139.732
3241,140.284
3241.9,132.594
3242.8,132.324
3243.7,118.846
3244.6,118.672
3245.5,117.42
3246.4,107.534
3247.3,107.732
3248.2,100.0808
3249.1,86.5686
3250,78.868
3250.9,71.8084
3251.8,58.742
3252.7,50.0414
3253.5,36.7628
3254.4,21.4896
3255.3,8.08982
3256.2,-5.59684
