250.34,1.54298
252.57,-6.9759
254.8,0
257.03,-0.349988
259.26,-4.33724
261.48,1.42878
263.71,3.975532
265.94,-0.1656
268.16,-0.35713
270.39,-2.23828
272.61,4.7987706
274.84,-4.9830502
277.06,1.915056
279.28,0.0242139999999999
281.51,-0.660338
283.73,1.501266
285.95,2.792512
288.17,-1.395084
290.39,-2.1804
292.61,1.179032
294.83,-1.481076
297.05,4.184316
299.27,2.96586
301.48,10.80428
303.7,13.58948
305.91,11.52632
308.13,9.36897
310.35,10.09312
312.56,6.62622
314.77,6.96502
316.99,5.60554
319.2,4.238948
321.41,7.18974
323.62,5.31698
325.83,-0.115321
328.04,1.287038
330.25,-3.6191
332.46,-5.644138
334.67,-7.24182
336.88,-7.40204
339.08,-10.11278
341.29,-4.94928
343.5,-3.7749
345.7,4.67162
347.91,9.606669156
350.11,10.61886
352.31,11.91526
354.52,15.0058
356.72,18.2132
358.92,28.5228
361.12,15.6386
363.32,13.9494
365.52,15.91412
367.72,18.465
369.92,13.14542
372.12,19.5614
374.32,39.0852
376.51,77.4446
378.71,101.733
380.9,91.873
383.1,51.0744
385.29,24.2074
387.49,10.32672
389.68,9.3289
391.87,5.08468
394.07,1.75648
396.26,-1.534482
398.45,-1.292118
400.64,11.23764
402.83,15.57982
405.02,20.5342
407.21,35.5312
409.39,60.3854
411.58,138.36
413.77,361.286
415.95,638.814
418.14,700
420.32,474.704
422.51,239.154
424.69,127.964
426.87,94.1316
429.06,91.2518
431.24,81.1362
433.42,64.4528
435.6,32.5096
437.78,18.73852
439.96,7.18564
442.14,-0.1306826
444.31,6.38288
446.49,31.8166
448.67,42.6014
450.84,40.883
453.02,16.21554
455.19,6.14796
457.37,-0.35474
459.54,-2.44668
461.71,-0.06586
463.89,0.18111
466.06,-0.61762
468.23,-2.8765
470.4,-6.11882
472.57,-3.02664
474.74,-1.3708304
476.91,-3.9503
479.07,-3.235542
481.24,0.5515
483.41,6.06814
485.57,2.812788
487.74,0.640162
489.9,9.74222
492.07,1.7749014
494.23,-0.88655
496.4,-0.56948
498.56,-4.767688
500.72,-8.37542
502.88,-6.47258
505.04,-6.6652
507.2,-14.22592
509.36,-4.90746
511.52,-3.497942
513.68,-5.23052
515.83,-2.214598
517.99,3.4823238
520.14,-2.266426
522.3,-0.97088
524.45,3.4103868
526.61,0.89668
528.76,-0.630416
530.91,1.46582
533.07,5.49294
535.22,8.08178
537.37,9.95354
539.52,10.38622
541.67,7.50268
543.82,6.58748
545.97,9.84678
548.11,6.60344
550.26,-0.934334
552.41,-2.6764742
554.55,-1.54411
556.7,-0.1777
558.84,-3.035156
560.98,6.141904
563.13,2.596902
565.27,7.9219
567.41,5.03578
569.55,14.4626
571.69,34.1262
573.83,77.7716
575.97,119.312
578.11,125.282
580.25,82.4848
582.39,44.253
584.52,25.2698
586.66,20.24
588.79,11.32114
590.93,8.0992
593.06,8.762614
595.19,6.44618
597.33,11.5572
599.46,2.07444
601.59,-1.853392
603.72,-1.914736
605.85,-2.06331
607.98,-0.0202313
610.11,2.8566586
612.24,4.67534
614.36,8.95552
616.49,9.97436
618.62,4.83936
620.74,7.29626
622.87,6.0376
624.99,-0.23544
627.11,0.9551
629.24,3.61476
631.36,-4.0242
633.48,2.691358
635.6,1.450382
637.72,-0.7999
639.84,3.506582
641.96,-0.0471192
644.08,2.45662
646.2,0.234788
648.31,-2.51792
650.43,-1.44224
652.54,-6.24476
654.66,-6.51254
656.77,-3.96934
658.89,-4.85132
661,-0.432550000000001
663.11,1.68708
665.22,-1.70148
667.33,8.38758
669.44,8.63824
671.55,10.139422
673.66,19.45218
675.77,18.73036
677.88,32.3712
679.98,38.4162
682.09,48.0776
684.2,62.7154
686.3,71.379
688.4,86.5588
690.51,97.2002
692.61,109.6322
694.71,118.484
696.81,123.15
698.92,128.296
701.02,143.884
703.11,151.834
705.21,157.02
707.31,163.388
709.41,168.778
711.51,169.946
713.6,156.282
715.7,150.616
717.79,134.374
719.89,120.182
721.98,105.8758
724.07,87.4386
726.16,77.0524
728.25,69.2112
730.35,60.03
732.44,59.7094
734.52,68.585
736.61,70.5438
738.7,84.1864
740.79,105.3444
742.87,135.806
744.96,174.258
747.05,219.898
749.13,252.602
751.21,248.202
753.3,218.378
755.38,167.15
757.46,122.494
759.54,88.5682
761.62,61.6714
763.7,40.9162
765.78,29.6204
767.86,20.757
769.94,15.13566
772.01,2.80241
774.09,-0.206018
776.17,0.588196
778.24,2.04942
780.32,1.9178
782.39,-1.87486
784.46,-1.696628
786.53,7.381968
788.61,3.22082
790.68,6.224006
792.75,7.3067
794.82,6.810354
796.89,4.147638
798.95,3.46784
801.02,-1.11326
803.09,4.04012
805.15,1.610278
807.22,3.428042
809.28,4.69643382
811.35,2.97792
813.41,6.66052
815.47,4.872568
817.53,3.46892
819.6,2.41924
821.66,2.3134
823.72,-1.46632
825.78,-1.99446
827.83,1.869638
829.89,-1.45358
831.95,2.393108
834,2.58557
836.06,-0.887834
838.12,8.15422
840.17,1.890652
842.22,5.75366
844.28,8.13736
846.33,7.32072
848.38,8.55124
850.43,5.7385
852.48,4.092704
854.53,7.69828
856.58,10.00396
858.63,8.94844
860.67,6.38662
862.72,9.634374
864.77,6.86016
866.81,7.79778
868.86,5.31962
870.9,4.1499
872.94,2.119714
874.98,-0.581624
877.03,2.75461
879.07,3.347826
881.11,1.93768
883.15,2.667534
885.19,1.807622
887.22,7.057614
889.26,3.306506
891.3,6.121472
893.33,-0.30313
895.37,1.45964
897.4,-2.283582
899.44,0
901.47,-1.60058
903.5,3.804314
905.54,4.85864
907.57,2.242336
909.6,5.78978
911.63,1.95744
913.66,0.42564
915.68,4.29588
917.71,1.99208
919.74,2.2805834
921.76,4.39396
923.79,-2.02316
925.82,6.0312
927.84,4.739386
929.86,5.641112
931.89,7.18744
933.91,7.292064
935.93,9.52956
937.95,7.9342
939.97,4.687184
941.99,4.805
944.01,1.99028
946.02,4.20698
948.04,-1.65642
950.06,3.487766
952.07,7.25146
954.09,9.087328
956.1,4.19188
958.12,6.46406
960.13,6.789478
962.14,6.16233
964.15,6.696948
966.16,6.152682
968.17,-0.915518
970.18,0.0858514
972.19,-1.04858
974.2,3.1668
976.2,4.494534
978.21,4.0124
980.22,8.10742
982.22,4.37404
984.22,9.05816
986.23,11.8895
988.23,6.731576
990.23,6.93152
992.23,7.07982
994.24,8.282222
996.23,7.15046
998.23,5.504276
1000.2,10.6681
1002.2,12.4137
1004.2,16.9285
1006.2,15.24758
1008.2,14.51518
1010.2,13.42298
1012.2,15.7034
1014.2,18.4794
1016.2,17.4066
1018.2,19.9164
1020.2,14.75864
1022.2,20.6678
1024.2,20.4844
1026.1,24.7938
1028.1,25.9622
1030.1,31.8894
1032.1,28.299
1034.1,32.1974
1036.1,31.5514
1038.1,32.0712
1040.1,33.4252
1042,34.6416
1044,38.6334
1046,41.2738
1048,41.5858
1050,45.8336
1051.9,45.6866
1053.9,48.157
1055.9,45.722
1057.9,41.3546
1059.9,42.6352
1061.8,39.8274
1063.8,39.837
1065.8,37.7462
1067.8,34.4994
1069.7,31.5114
1071.7,30.2856
1073.7,27.7968
1075.6,25.8778
1077.6,25.8496
1079.6,21.1522
1081.5,15.81876
1083.5,12.04058
1085.5,5.36864
1087.5,10.47962
1089.4,7.37688
1091.4,0.81388
1093.3,5.87155
1095.3,3.28702
1097.3,2.924912
1099.2,4.987486
1101.2,3.17158
1103.2,1.940726
1105.1,0.792216
1107.1,1.101894
1109,-3.0103428
1111,-1.355436
1113,0.713606
1114.9,-1.91014
1116.9,-1.154508
1118.8,-8.082438
1120.8,1.86552
1122.7,4.68144
1124.7,1.93336
1126.6,1.40006
1128.6,3.96386
1130.5,5.8739
1132.5,8.12126
1134.4,2.5782
1136.4,6.717772
1138.3,8.5213
1140.3,13.60514
1142.2,12.2144
1144.2,10.40824
1146.1,13.8763
1148.1,14.6414
1150,18.9594
1151.9,21.3076
1153.9,22.2974
1155.8,22.5882
1157.8,22.5768
1159.7,24.9772
1161.6,26.7042
1163.6,33.3396
1165.5,36.8246
1167.5,41.1644
1169.4,46.3908
1171.3,53.9004
1173.3,53.1418
1175.2,55.9638
1177.1,63.0352
1179.1,72.368
1181,75.0208
1182.9,85.4106
1184.9,92.3124
1186.8,103.914
1188.7,113.168
1190.6,123.106
1192.6,129.658
1194.5,144.484
1196.4,154.994
1198.4,160.914
1200.3,172.804
1202.2,178.97
1204.1,187.182
1206,195.466
1208,201.592
1209.9,212.858
1211.8,224.634
1213.7,228.16
1215.6,227.88
1217.6,228.35
1219.5,230.282
1221.4,223.014
1223.3,219.504
1225.2,216.478
1227.1,207.466
1229.1,205.07
1231,194.79
1232.9,185.73
1234.8,178.496
1236.7,171.744
1238.6,161.648
1240.5,154.578
1242.4,146.592
1244.3,139.968
1246.2,132.634
1248.1,117.856
1250.1,115.82
1252,108.884
1253.9,104.556
1255.8,100.746
1257.7,92.4964
1259.6,95.4532
1261.5,93.7256
1263.4,91.6972
1265.3,88.5208
1267.2,87.4828
1269.1,86.8424
1271,90.8626
1272.9,91.9856
1274.8,91.0656
1276.6,85.3036
1278.5,85.4302
1280.4,80.2552
1282.3,74.252
1284.2,65.524
1286.1,59.5858
1288,57.842
1289.9,54.9146
1291.8,50.7904
1293.7,50.5652
1295.6,48.5492
1297.4,46.0332
1299.3,46.3934
1301.2,42.8744
1303.1,44.2454
1305,38.6504
1306.9,40.1088
1308.7,42.355
1310.6,42.3956
1312.5,38.4612
1314.4,41.1312
1316.3,39.311
1318.1,37.7506
1320,40.4066
1321.9,38.1674
1323.8,40.8996
1325.7,39.138
1327.5,44.1356
1329.4,43.4296
1331.3,43.4584
1333.1,45.487
1335,46.1968
1336.9,47.7594
1338.8,53.498
1340.6,57.9784
1342.5,59.4364
1344.4,71.9646
1346.2,81.4328
1348.1,86.3246
1350,98.2268
1351.8,101.5164
1353.7,105.612
1355.6,101.3376
1357.4,100.5254
1359.3,102.6752
1361.1,101.0042
1363,105.926
1364.9,113.562
1366.7,120.7
1368.6,132.666
1370.4,146.708
1372.3,167.64
1374.2,189.526
1376,214.306
1377.9,251.888
1379.7,278.68
1381.6,299.474
1383.4,309.052
1385.3,302.462
1387.1,285.194
1389,271.7
1390.8,262.37
1392.7,264.716
1394.5,279.54
1396.4,303.478
1398.2,324.806
1400.1,333.236
1401.9,326.496
1403.8,297.676
1405.6,261.012
1407.4,219.862
1409.3,184.168
1411.1,154.73
1413,123.672
1414.8,109.808
1416.6,94.1314
1418.5,78.025
1420.3,71.1014
1422.2,60.9558
1424,51.3074
1425.8,41.6626
1427.7,41.6598
1429.5,35.137
1431.3,30.727
1433.2,25.5162
1435,21.7186
1436.8,20.6512
1438.7,16.9282
1440.5,14.76072
1442.3,10.67926
1444.1,11.65646
1446,8.75552
1447.8,10.66498
1449.6,6.56356
1451.4,4.41386
1453.3,1.754254
1455.1,-0.621566
1456.9,0.3415692
1458.7,-0.68272
1460.6,-2.348996
1462.4,-1.44825
1464.2,-0.764966
1466,-5.52136
1467.8,-3.6725
1469.6,-6.93784
1471.5,-7.80202
1473.3,-7.35402
1475.1,-9.19558
1476.9,-7.48984
1478.7,-8.97986
1480.5,-8.00242
1482.4,-6.94708
1484.2,-6.03014
1486,-6.7115
1487.8,-6.239
1489.6,-8.57232
1491.4,-8.54368
1493.2,-9.34396
1495,-11.62396
1496.8,-6.42456
1498.6,-7.48782
1500.4,-5.50742
1502.2,-8.57362
1504,-8.07788
1505.8,-7.61682
1507.6,-1.30734
1509.4,-3.790816
1511.2,-5.50344
1513,-4.72524
1514.8,-7.07942
1516.6,-5.3851
1518.4,-5.1196
1520.2,-7.308078
1522,-5.3263
1523.8,-6.46344
1525.6,-5.322254
1527.4,-4.024068
1529.2,-2.711114
1531,-4.311094
1532.8,-1.26217
1534.6,-3.94332
1536.4,1.30944
1538.2,-0.717384
1539.9,0.9972366
1541.7,2.13574
1543.5,3.438766
1545.3,7.5362
1547.1,12.08334
1548.9,12.77408
1550.7,20.5148
1552.4,25.6398
1554.2,36.302
1556,41.7404
1557.8,39.6234
1559.6,34.0242
1561.3,33.7726
1563.1,38.9342
1564.9,41.7766
1566.7,44.2792
1568.4,47.2444
1570.2,52.7658
1572,53.898
1573.8,63.6904
1575.5,67.7374
1577.3,78.6326
1579.1,82.5552
1580.9,89.0294
1582.6,92.3514
1584.4,101.3088
1586.2,107.338
1587.9,112.87
1589.7,121.404
1591.5,132.292
1593.2,137.334
1595,143.3
1596.8,153.286
1598.5,158.616
1600.3,172.678
1602,180.002
1603.8,187.07
1605.6,205.246
1607.3,213.038
1609.1,221.98
1610.8,230.66
1612.6,240.198
1614.4,245.948
1616.1,259.236
1617.9,266.056
1619.6,275.558
1621.4,280.184
1623.1,291.566
1624.9,297.938
1626.6,307.498
1628.4,315.64
1630.1,323.24
1631.9,324.054
1633.6,330.364
1635.4,339.384
1637.1,341.682
1638.9,343.584
1640.6,344.976
1642.4,342.022
1644.1,346.682
1645.8,349.404
1647.6,353.38
1649.3,348.538
1651.1,349.544
1652.8,349.296
1654.6,348.574
1656.3,345.866
1658,345.558
1659.8,344.91
1661.5,343.894
1663.2,341.208
1665,341.52
1666.7,335.194
1668.4,334.286
1670.2,330.802
1671.9,332.914
1673.6,337.54
1675.4,337.378
1677.1,335.346
1678.8,337.962
1680.5,340.484
1682.3,338.268
1684,341.116
1685.7,348.266
1687.5,356.43
1689.2,364.792
1690.9,370.304
1692.6,381.622
1694.3,392.694
1696.1,402.68
1697.8,409.76
1699.5,425.648
1701.2,434.022
1702.9,445.842
1704.7,455.886
1706.4,470.454
1708.1,473.844
1709.8,485.43
1711.5,486.362
1713.2,492.222
1714.9,488.936
1716.7,487.578
1718.4,485.93
1720.1,478.344
1721.8,467.94
1723.5,459.618
1725.2,444.566
1726.9,440.862
1728.6,424.224
1730.3,409.666
1732,397.172
1733.7,381.02
1735.4,363.196
1737.1,337.678
1738.8,314.364
1740.6,287.062
1742.3,263.526
1744,239.214
1745.7,211.786
1747.3,188.728
1749,165.122
1750.7,148.748
1752.4,129.118
1754.1,110.74
1755.8,98.0544
1757.5,86.5476
1759.2,71.7102
1760.9,62.8226
1762.6,56.2502
1764.3,46.8698
1766,40.886
1767.7,37.6178
1769.4,32.6196
1771.1,26.9956
1772.7,23.109
1774.4,19.3986
1776.1,17.7018
1777.8,14.75298
1779.5,11.57774
1781.2,8.60902
1782.8,5.83464
1784.5,5.878762
1786.2,5.7028
1787.9,-1.2471
1789.6,4.13104
1791.2,0.95164
1792.9,3.71196
1794.6,1.330998
1796.3,-1.757556
1798,-2.4378
1799.6,-4.4986
1801.3,-3.611504
1803,-4.9886
1804.7,-3.97022
1806.3,-2.65584
1808,-4.802726
1809.7,-5.685
1811.3,-1.31330894
1813,-4.743894
1814.7,-5.85876
1816.3,-6.61442
1818,-3.144974
1819.7,-2.329068
1821.3,-2.90697
1823,-6.8758
1824.7,-7.3508
1826.3,-3.413948
1828,-3.5073904
1829.7,-3.37436
1831.3,-1.355166
1833,-0.217302
1834.6,-1.7417052
1836.3,-1.83704
1838,-2.31679
1839.6,-1.73338
1841.3,-1.04756
1842.9,-0.81416
1844.6,-1.373234
1846.2,-1.67762
1847.9,-2.89904
1849.5,-1.9253846
1851.2,1.83046
1852.8,-1.059038
1854.5,1.56688
1856.1,0.82462
1857.8,1.56574
1859.4,0.951904
1861.1,0.351562
1862.7,-0.38406
1864.4,-0.880328
1866,2.57484
1867.7,-1.52248
1869.3,0.986027
1871,1.08894
1872.6,-0.386844
1874.2,3.776828
1875.9,0.724332
1877.5,2.816302
1879.2,0
1880.8,0.92622
1882.4,-5.83196
1884.1,-1.132072
1885.7,-1.938992
1887.3,0.83433596
1889,-2.310376
1890.6,-1.57974
1892.2,-1.1774042
1893.9,-3.10596
1895.5,-7.29874
1897.1,-2.117056
1898.8,0.287694
1900.4,-4.283434
1902,-2.7719
1903.7,-0.83666
1905.3,-2.711537354
1906.9,-0.21182
1908.5,-3.08344
1910.2,-4.194824
1911.8,-0.14286
1913.4,-2.80001
1915,-2.92494
1916.7,-3.35659
1918.3,-4.465254
1919.9,-1.41602
1921.5,-3.022044
1923.1,-2.955482
1924.8,-0.38844
1926.4,-0.17454
1928,-2.69422
1929.6,-1.8358
1931.2,-3.278014
1932.8,-1.60034
1934.4,0.27968
1936.1,2.50044
1937.7,-4.05132
1939.3,-1.994378
1940.9,-2.853282
1942.5,-0.12498
1944.1,0.874158
1945.7,-1.61263
1947.3,-0.845976
1948.9,-1.64092
1950.5,-0.76914092
1952.1,0.0349389486
1953.8,1.86219
1955.4,1.15498
1957,-2.14921028
1958.6,-2.1344
1960.2,-1.42358
1961.8,0.74498
1963.4,0.114762
1965,1.8982
1966.6,0.518132
1968.2,-1.436314
1969.8,-0.124928
1971.4,-0.9409
1973,1.96658
1974.5,-0.430212
1976.1,-0.209982
1977.7,-1.95124
1979.3,-0.481158
1980.9,-4.499164
1982.5,-3.150412
1984.1,-1.895146
1985.7,-1.45776
1987.3,1.168276
1988.9,-1.931118
1990.5,-0.36364
1992,-0.3618456
1993.6,1.89736
1995.2,-0.243504
1996.8,-1.77656
1998.4,-4.67009
2000,-4.06813
2001.6,-4.0870018
2003.1,-1.104934
2004.7,-2.9756338
2006.3,-1.395158
2007.9,-1.42056
2009.5,-1.657804
2011,-1.75126
2012.6,1.16726
2014.2,-1.55251
2015.8,-0.927908
2017.3,-0.0841180000000001
2018.9,-0.2108622
2020.5,1.127644
2022.1,-2.21072
2023.6,-0.272172
2025.2,1.1798044
2026.8,2.148986
2028.3,0.98456
2029.9,-0.95286
2031.5,-1.857924
2033,-2.156618
2034.6,-0.328876
2036.2,-1.379782
2037.7,3.99234
2039.3,2.33968
2040.9,0.221584
2042.4,2.26478
2044,1.599254
2045.6,4.308596
2047.1,2.118408
2048.7,1.711366
2050.2,-0.0646280000000001
2051.8,0.26132
2053.4,3.00611
2054.9,1.771654
2056.5,0.494338
2058,1.340652
2059.6,1.28218
2061.1,7.8841
2062.7,3.054118
2064.2,2.4302846
2065.8,4.5543542
2067.3,3.86738
2068.9,5.718718
2070.4,4.24002
2072,1.918584
2073.5,-3.834826
2075.1,-6.01514
2076.6,0.0263479999999999
2078.2,-0.0194419999999999
2079.7,6.011642
2081.3,6.71404
2082.8,7.642
2084.4,10.016322
2085.9,7.0198
2087.4,6.3445518
2089,6.720656
2090.5,8.59494
2092.1,8.8334
2093.6,7.412534
2095.1,8.34936
2096.7,7.907892
2098.2,11.43978
2099.7,7.74632
2101.3,7.754558
2102.8,9.187832
2104.3,12.90752
2105.9,9.19014
2107.4,11.47876
2108.9,7.91794
2110.5,9.5345
2112,8.99656
2113.5,11.1665
2115.1,10.192412
2116.6,9.60478
2118.1,10.69408
2119.6,7.85846
2121.2,7.95932
2122.7,10.3031
2124.2,10.99012
2125.7,9.9662
2127.3,11.32634
2128.8,12.41914
2130.3,20.7766
2131.8,24.7274
2133.3,43.3052
2134.9,61.0958
2136.4,84.0082
2137.9,92.3812
2139.4,81.3916
2140.9,61.492
2142.4,40.7132
2144,29.4578
2145.5,17.0086
2147,14.6332
2148.5,12.47186
2150,10.19806
2151.5,8.96966
2153,7.22296
2154.5,3.54144
2156,5.66826
2157.6,4.20792
2159.1,5.0579
2160.6,4.39494
2162.1,2.982998
2163.6,-0.844784
2165.1,0.708028
2166.6,2.06098
2168.1,1.543698
2169.6,-5.9544
2171.1,1.87272
2172.6,1.554044
2174.1,0.386640000000001
2175.6,1.387954
2177.1,-1.4362666
2178.6,1.1682
2180.1,-1.716404
2181.6,0.089592
2183.1,-2.64275
2184.6,-0.3551
2186.1,0.59125
2187.5,-0.35617
2189,-2.68218
2190.5,-1.660144
2192,-0.45006
2193.5,-1.146728
2195,1.781396
2196.5,-5.73528
2198,-4.82826
2199.5,-4.93128
2201,-5.23929
2202.4,-2.222668
2203.9,-3.8704202
2205.4,-3.264802
2206.9,-4.89148
2208.4,-3.465072
2209.9,0.203322
2211.3,-2.183104
2212.8,-2.82226
2214.3,-4.75878
2215.8,-2.455998
2217.3,-5.61494
2218.7,-4.570736
2220.2,-6.70258
2221.7,-3.782786
2223.2,-5.394364
2224.6,-1.29994
2226.1,-1.1249836
2227.6,-1.7284
2229.1,-1.7581
2230.5,-1.48124
2232,-3.711446
2233.5,-2.762854
2234.9,-1.502262
2236.4,-2.507896
2237.9,-3.370978
2239.3,-5.3303194
2240.8,-2.08338
2242.3,-1.3246868
2243.7,-2.00142
2245.2,-2.503317
2246.7,-4.00392
2248.1,-2.706092
2249.6,-3.89714
2251.1,-4.07129
2252.5,-0.863988
2254,-1.765716
2255.4,-3.088652
2256.9,-0.50962
2258.3,-0.7357092
2259.8,-0.965894
2261.3,-2.471698
2262.7,0.550572
2264.2,-1.8660876
2265.6,-1.461676
2267.1,-0.087328
2268.5,-1.64856
2270,-0.44448
2271.4,-4.6919
2272.9,-0.190768
2274.3,0
2275.8,-2.136156
2277.2,-3.01686
2278.7,-0.754826
2280.1,-3.708456
2281.6,-2.777394
2283,-0.284396
2284.5,-0.074246
2285.9,-2.59886
2287.4,-0.7938362
2288.8,-1.3983616
2290.2,1.288986
2291.7,1.446258
2293.1,-0.576592
2294.6,-2.3387
2296,0.609542
2297.4,0.091694
2298.9,-1.53498
2300.3,1.2759066
2301.7,1.10492
2303.2,-0.283878
2304.6,-1.48056
2306,-1.378896
2307.5,0.084102
2308.9,-0.438982
2310.3,2.886206
2311.8,-0.34528
2313.2,1.85676
2314.6,1.06055
2316.1,-0.27094
2317.5,2.217508
2318.9,0.40571
2320.3,3.36594
2321.8,3.962388
2323.2,5.1329
2324.6,10.27296
2326,18.2272
2327.5,22.8556
2328.9,29.9358
2330.3,26.4986
2331.7,24.8592
2333.2,15.4746
2334.6,9.58574
2336,8.90356
2337.4,4.70914
2338.8,4.41072
2340.2,4.58456
2341.7,5.36978
2343.1,3.486002
2344.5,1.414212
2345.9,2.82622
2347.3,1.709444
2348.7,2.927288
2350.1,-0.782154
2351.6,4.80888
2353,2.478604
2354.4,2.18624
2355.8,1.966274
2357.2,-0.554534
2358.6,0.9061
2360,6.9765
2361.4,7.09426
2362.8,5.41314
2364.2,2.052428
2365.6,1.25638
2367,6.55698
2368.4,5.54084
2369.8,5.372408
2371.2,4.69942
2372.6,1.904432
2374,3.405562
2375.4,4.41852
2376.8,5.56786
2378.2,4.88087
2379.6,7.00012
2381,5.399826
2382.4,5.23324
2383.8,7.34952
2385.2,4.86682
2386.6,2.99384
2388,3.29408
2389.4,3.84802
2390.8,4.3236
2392.1,3.34993
2393.5,4.6078
2394.9,5.02046
2396.3,6.035948
2397.7,5.13792
2399.1,5.27064
2400.5,3.299028
2401.9,3.451126
2403.2,5.96074
2404.6,4.634532
2406,3.38072
2407.4,5.88136
2408.8,3.502072
2410.2,3.784419
2411.5,4.47622
2412.9,3.7288
2414.3,3.551682
2415.7,0
2417,1.630406
2418.4,1.51964
2419.8,3.772032824
2421.2,0.642226
2422.5,3.24912
2423.9,2.00296
2425.3,5.60392
2426.7,4.85062
2428,2.0598932
2429.4,2.90734
2430.8,0.2078142
2432.1,2.034016
2433.5,1.71312
2434.9,1.2860518
2436.2,2.83008
2437.6,0.12132
2439,3.158586
2440.3,1.84704
2441.7,1.88924
2443.1,4.317398
2444.4,1.60014
2445.8,1.453718
2447.2,1.84895
2448.5,-0.285618
2449.9,1.41972468
2451.2,-0.709772
2452.6,1.579804
2454,1.4394
2455.3,1.08528
2456.7,1.833424
2458,0.198543
2459.4,2.13495522
2460.7,-2.818646
2462.1,0.844034
2463.4,1.70376
2464.8,2.213516
2466.1,0.14694
2467.5,1.71641
2468.8,1.856882
2470.2,1.107048
2471.5,3.50848
2472.9,-0.68302
2474.2,-0.3078
2475.6,1.52733
2476.9,1.676726
2478.3,2.162726
2479.6,3.21368
2481,-1.44138
2482.3,2.054456
2483.6,-1.403038
2485,0.563264
2486.3,0.896772
2487.7,1.957634
2489,1.295814
2490.3,3.029966
2491.7,2.95988
2493,-0.751624
2494.4,-0.79448
2495.7,1.867576
2497,-1.091532
2498.4,0.770972
2499.7,0.866088
2501,1.61841
2502.4,-1.756874
2503.7,-2.370594
2505,2.915818
2506.4,-1.555338
2507.7,-2.80118
2509,0.715774
2510.3,-1.254816
2511.7,-0.10593
2513,0.525552
2514.3,0.047128
2515.6,-0.06212
2517,-0.812502
2518.3,-0.54852
2519.6,-0.291064
2520.9,0
2522.3,3.249252
2523.6,0.502688
2524.9,3.4857
2526.2,1.974026
2527.5,-1.846452
2528.9,-0.444978
2530.2,0.87722
2531.5,-0.193224
2532.8,1.914976
2534.1,-0.20644
2535.4,2.38992
2536.8,3.003784
2538.1,3.048752
2539.4,-0.4307
2540.7,4.58182
2542,2.517092
2543.3,2.478556
2544.6,-0.6219
2545.9,3.030562
2547.2,1.270074
2548.6,2.168236
2549.9,2.9041
2551.2,4.076938
2552.5,3.372276
2553.8,4.95164
2555.1,2.899818
2556.4,2.157924
2557.7,3.337798
2559,2.24165
2560.3,2.029296
2561.6,3.29798
2562.9,1.58462
2564.2,1.989832
2565.5,2.27418
2566.8,2.79464
2568.1,3.35752
2569.4,1.278852
2570.7,2.68628
2572,3.289258
2573.3,1.04618
2574.6,-0.28203
2575.9,1.208561
2577.1,3.4001248
2578.4,3.58848
2579.7,1.9396
2581,3.488418
2582.3,1.473374
2583.6,3.37115
2584.9,3.92688
2586.2,1.459
2587.5,1.316308
2588.7,3.89164
2590,1.765958
2591.3,1.156828
2592.6,2.2050022
2593.9,1.852856
2595.2,-0.81886
2596.4,2.563608
2597.7,1.6951708
2599,2.391598
2600.3,2.44854
2601.6,-0.017824
2602.8,2.6425
2604.1,1.131244
2605.4,1.358012
2606.7,-0.100438
2608,0.3526534
2609.2,0.636268
2610.5,-0.397672
2611.8,2.174154
2613,0.39854
2614.3,-0.44694
2615.6,1.022776
2616.9,-0.699258
2618.1,-0.56642
2619.4,-0.8187552
2620.7,-2.677334
2621.9,-1.832866
2623.2,0.627312
2624.5,1.24793
2625.7,-0.786488
2627,0.8046
2628.3,-1.042224
2629.5,0
2630.8,-1.38024
2632.1,-3.867016
2633.3,-1.12046
2634.6,-1.84179
2635.8,-2.720596
2637.1,-4.04244
2638.4,-3.37652
2639.6,-2.227488
2640.9,-4.158122
2642.1,-3.27302
2643.4,-2.912348
2644.6,-2.70122
2645.9,-3.68694
2647.2,-6.874566
2648.4,-2.43288
2649.7,-3.041812
2650.9,-3.51622
2652.2,-4.22774
2653.4,-4.78756
2654.7,-5.644344
2655.9,-7.04462
2657.2,-2.48316
2658.4,-1.325684
2659.7,-3.12576
2660.9,-4.59184
2662.2,-5.05424
2663.4,-7.25902
2664.6,-4.825622
2665.9,-4.11994
2667.1,-5.268898
2668.4,-4.5061
2669.6,-4.17156
2670.9,-4.14568
2672.1,-4.89716
2673.3,-4.08416
2674.6,-1.549976
2675.8,-4.761998
2677.1,-5.3434512
2678.3,-4.21142
2679.5,-4.94992
2680.8,-4.69062
2682,-4.2962
2683.2,-4.05586
2684.5,-1.93516
2685.7,-3.61196
2686.9,-1.91466
2688.2,-5.409286
2689.4,-1.234494
2690.6,-2.85896
2691.9,-6.86918
2693.1,-3.8256686
2694.3,-3.7685
2695.5,-1.21932
2696.8,-5.20302
2698,-3.901
2699.2,-3.309138
2700.4,-0.546008
2701.7,-2.34758
2702.9,-3.622
2704.1,-2.62148
2705.3,-3.22164
2706.6,-0.90211
2707.8,-2.9237
2709,-3.287138
2710.2,-0.992274
2711.4,-1.411108
2712.6,-3.965022
2713.9,-2.33476
2715.1,-3.05186
2716.3,-0.98131
2717.5,-0.598912
2718.7,-2.18692
2719.9,-2.43021
2721.2,-1.17622
2722.4,-2.3061
2723.6,-0.872252
2724.8,-2.315696
2726,0
2727.2,-1.3091176
2728.4,-0.24321
2729.6,-2.02269
2730.8,-2.055554
2732,-1.692788
2733.3,0.6296
2734.5,-2.143034
2735.7,-1.2056148
2736.9,-0.7910734
2738.1,0.20126
2739.3,0.1150488
2740.5,-3.312998
2741.7,-1.135726
2742.9,-2.57604
2744.1,-1.059686
2745.3,0.723002
2746.5,0.030402
2747.7,-1.9758
2748.9,-0.60878
2750.1,-0.988298
2751.3,-3.612192
2752.5,-1.26178
2753.7,-2.04668
2754.9,1.80432
2756,1.143102
2757.2,1.54151
2758.4,1.911828
2759.6,3.436919
2760.8,0.16856
2762,2.263034
2763.2,3.1742126
2764.4,-0.544478
2765.6,-0.06236
2766.8,0.436436
2767.9,5.30446
2769.1,3.34426
2770.3,4.54946
2771.5,4.4868626
2772.7,4.17462
2773.9,6.12214
2775.1,5.60828
2776.2,2.672064
2777.4,0.513262
2778.6,7.32464
2779.8,6.65712
2781,3.83832
2782.1,3.81814
2783.3,5.9146656
2784.5,4.76524
2785.7,3.141318
2786.8,3.014872
2788,2.580532
2789.2,2.353006
2790.4,3.389606
2791.5,2.86596
2792.7,1.8621914
2793.9,0.395564
2795.1,0.82077
2796.2,0.727638
2797.4,2.33644
2798.6,0.225434
2799.7,2.084322
2800.9,0.189592
2802.1,-0.465462
2803.2,-1.04648
2804.4,-1.342656
2805.6,-0.580148
2806.7,0.97584
2807.9,0.632301
2809.1,2.0394
2810.2,2.628638
2811.4,2.31818
2812.6,1.78607
2813.7,0.22029
2814.9,-2.365858
2816,1.5002
2817.2,-0.1525664
2818.4,0
2819.5,-0.769392
2820.7,0.253818
2821.8,-0.3324532
2823,1.592
2824.1,0.096978
2825.3,-0.678168
2826.4,-2.041454
2827.6,-0.1785
2828.7,0.18788
2829.9,0.33014
2831,-0.392488
2832.2,-1.103152
2833.3,-0.7564
2834.5,-0.669144
2835.6,-1.5519
2836.8,-2.6977
2837.9,-3.38512
2839.1,-1.30946
2840.2,-2.03754
2841.4,-1.980116
2842.5,-0.8544
2843.7,-2.545258
2844.8,-3.84614
2845.9,-3.030554
2847.1,-1.923
2848.2,-4.10302
2849.4,-2.630344
2850.5,-0.668818
2851.7,-3.47827
2852.8,-3.906156
2853.9,-4.70416
2855.1,-1.770518
2856.2,-4.38748
2857.3,-5.08364
2858.5,-3.60181
2859.6,0.16166
2860.7,-3.002444
2861.9,-5.36946
2863,-2.26972
2864.1,-5.00858
2865.3,-2.454414
2866.4,-2.94983
2867.5,-3.633212
2868.7,-2.369728
2869.8,-2.8834
2870.9,-2.4448
2872,-2.91624
2873.2,-0.199
2874.3,-1.676778
2875.4,0.94175
2876.5,-2.2498568
2877.7,0.317122
2878.8,-1.547164
2879.9,-0.206712
2881,0.195012
2882.2,0.668266
2883.3,1.7028
2884.4,1.3532
2885.5,2.70046
2886.6,1.993348
2887.8,-2.1639064
2888.9,2.698796
2890,6.19656
2891.1,5.9215
2892.2,8.6139
2893.3,9.76958
2894.4,11.50488
2895.6,11.75392
2896.7,11.56094
2897.8,13.5108
2898.9,13.96842
2900,14.4022
2901.1,18.5978
2902.2,18.1658
2903.3,18.4696
2904.4,21.6428
2905.6,24.9108
2906.7,23.8792
2907.8,28.335
2908.9,29.555
2910,31.9592
2911.1,32.9254
2912.2,35.4318
2913.3,39.4502
2914.4,37.8986
2915.5,40.6904
2916.6,43.4784
2917.7,44.8118
2918.8,46.4688
2919.9,48.6886
2921,52.7718
2922.1,53.9174
2923.2,54.2588
2924.3,57.1728
2925.4,60.4528
2926.5,62.8456
2927.6,67.3298
2928.7,66.08
2929.8,67.1422
2930.8,72.6602
2931.9,72.9344
2933,74.303
2934.1,77.1188
2935.2,77.9488
2936.3,77.6992
2937.4,78.7792
2938.5,83.9448
2939.6,80.856
2940.6,85.6252
2941.7,83.2158
2942.8,85.2252
2943.9,87.1798
2945,84.924
2946.1,86.8244
2947.2,85.5136
2948.2,86.6132
2949.3,86.5844
2950.4,80.691
2951.5,81.8326
2952.6,78.9128
2953.6,76.9376
2954.7,75.5554
2955.8,70.4648
2956.9,70.1028
2957.9,65.496
2959,61.6736
2960.1,58.5516
2961.2,55.7348
2962.2,55.5566
2963.3,51.0678
2964.4,49.597
2965.5,45.6216
2966.5,43.424
2967.6,42.5516
2968.7,35.9072
2969.7,36.132
2970.8,36.0552
2971.9,35.5948
2973,28.8836
2974,30.9108
2975.1,28.7856
2976.2,27.8042
2977.2,25.5462
2978.3,24.3028
2979.3,21.0968
2980.4,21.9162
2981.5,21.4434
2982.5,21.88
2983.6,18.8992
2984.7,20.4574
2985.7,17.9556
2986.8,18.987
2987.8,18.7714
2988.9,21.2758
2989.9,19.9954
2991,18.9262
2992.1,20.8662
2993.1,22.5342
2994.2,19.8558
2995.2,19.6424
2996.3,19.5644
2997.3,21.4044
2998.4,21.2498
2999.4,20.9254
3000.5,21.4538
3001.5,17.8808
3002.6,22.2464
3003.6,22.097
3004.7,23.2266
3005.7,23.8568
3006.8,23.325
3007.8,24.3068
3008.9,24.4328
3009.9,25.6808
3011,28.758
3012,27.117
3013,28.5514
3014.1,30.7824
3015.1,31.9196
3016.2,31.6294
3017.2,33.3272
3018.2,33.0332
3019.3,34.0756
3020.3,34.4132
3021.4,33.8858
3022.4,32.9846
3023.4,36.356
3024.5,35.0882
3025.5,39.3784
3026.5,40.7258
3027.6,41.7506
3028.6,42.2778
3029.6,42.798
3030.7,41.6856
3031.7,41.8236
3032.7,48.4124
3033.8,43.789
3034.8,46.6358
3035.8,50.1808
3036.9,49.673
3037.9,51.9304
3038.9,51.8806
3039.9,51.695
3041,51.7594
3042,51.6702
3043,55.7744
3044,54.477
3045.1,57.3936
3046.1,60.4154
3047.1,60.0908
3048.1,62.9586
3049.2,63.7378
3050.2,63.007
3051.2,63.685
3052.2,65.096
3053.2,68.601
3054.3,70.65
3055.3,70.5204
3056.3,70.8084
3057.3,69.6464
3058.3,72.0174
3059.3,73.9224
3060.3,77.0922
3061.4,74.8986
3062.4,79.066
3063.4,79.8904
3064.4,80.9424
3065.4,83.4908
3066.4,84.356
3067.4,84.582
3068.4,86.2666
3069.5,89.6442
3070.5,88.5826
3071.5,89.7122
3072.5,94.3924
3073.5,92.6906
3074.5,97.9798
3075.5,95.3722
3076.5,99.0978
3077.5,100.4556
3078.5,100.2664
3079.5,101.6384
3080.5,106.74
3081.5,103.786
3082.5,106.142
3083.5,110.784
3084.5,113.966
3085.5,111.336
3086.5,116.584
3087.5,116.874
3088.5,115.886
3089.5,117.636
3090.5,121.248
3091.5,120.038
3092.5,121.356
3093.5,123.084
3094.5,127.796
3095.5,128.076
3096.4,129.68
3097.4,130.266
3098.4,127.33
3099.4,135.508
3100.4,136.818
3101.4,140.312
3102.4,139.272
3103.4,144.246
3104.4,139.34
3105.3,147.998
3106.3,150.83
3107.3,149.462
3108.3,151.296
3109.3,157.686
3110.3,158.976
3111.3,160.624
3112.2,158.804
3113.2,163.972
3114.2,167.202
3115.2,169.71
3116.2,168.376
3117.1,170.154
3118.1,173.002
3119.1,177.304
3120.1,172.76
3121,177.282
3122,176.764
3123,182.068
3124,184.994
3124.9,187.16
3125.9,185.72
3126.9,190.856
3127.9,195.348
3128.8,192.794
3129.8,196.196
3130.8,196.008
3131.7,200.224
3132.7,200.534
3133.7,201.846
3134.7,203.95
3135.6,205.568
3136.6,207.224
3137.6,206.328
3138.5,207.702
3139.5,212.718
3140.4,213.36
3141.4,215.848
3142.4,214.768
3143.3,216.396
3144.3,219.628
3145.3,219.962
3146.2,220.064
3147.2,225.892
3148.1,225.218
3149.1,227.878
3150.1,229.448
3151,229.59
3152,229.57
3152.9,233.246
3153.9,234.208
3154.8,235.072
3155.8,235.438
3156.7,235.786
3157.7,238.226
3158.6,238.572
3159.6,243.846
3160.6,245.812
3161.5,244.51
3162.5,242.898
3163.4,247.342
3164.4,247.82
3165.3,243.248
3166.2,248.122
3167.2,248.116
3168.1,248.896
3169.1,246.274
3170,252.802
3171,253.3
3171.9,254.026
3172.9,254.728
3173.8,253.224
3174.7,254.906
3175.7,255.686
3176.6,254.174
3177.6,254.976
3178.5,252.946
3179.5,256.14
3180.4,257.232
3181.3,262.734
3182.3,257.182
3183.2,258.716
3184.1,255.43
3185.1,262.482
3186,253.184
3186.9,260.072
3187.9,261.666
3188.8,256.84
3189.7,259.666
3190.7,259.718
3191.6,260.096
3192.5,258.57
3193.5,262.364
3194.4,259.434
3195.3,258.976
3196.3,261.216
3197.2,259.334
3198.1,259.044
3199,257.024
3200,254.734
3200.9,252.436
3201.8,253.582
3202.7,254.436
3203.7,254.568
3204.6,254.906
3205.5,251.006
3206.4,248.934
3207.3,248.602
3208.3,246.572
3209.2,245.4
3210.1,242.622
3211,242.426
3211.9,239.45
3212.9,238.078
3213.8,237.2
3214.7,232.554
3215.6,235.698
3216.5,231.726
3217.4,232.368
3218.4,226.75
3219.3,228.266
3220.2,224.572
3221.1,222.872
3222,218.636
3222.9,217.3
3223.8,217.484
3224.7,215.616
3225.6,205.66
3226.6,205.288
3227.5,204.496
3228.4,204.17
3229.3,198.49
3230.2,198.052
3231.1,197.604
3232,191.166
3232.9,188.534
3233.8,185.868
3234.7,180.99
3235.6,177.832
3236.5,173.932
3237.4,170.562
3238.3,167.792
3239.2,161.9
3240.1,157.92
3241,155.996
3241.9,152.258
3242.8,145.01
3243.7,134.63
3244.6,136.752
3245.5,129.52
3246.4,123.666
3247.3,114.544
3248.2,107.404
3249.1,97.5704
3250,87.8012
3250.9,79.8992
3251.8,69.8202
3252.7,57.6356
3253.5,47.2924
3254.4,30.89
3255.3,10.42814
3256.2,-7.2145
