250.34,-9.44368
252.57,-13.57276
254.8,0
257.03,-1.30682
259.26,-0.307026
261.48,6.73686
263.71,7.17688
265.94,-1.25348
268.16,3.856784
270.39,7.6499206
272.61,11.51408
274.84,-0.189064
277.06,-0.0731360000000001
279.28,1.17287
281.51,2.3055822
283.73,2.38866
285.95,1.384612
288.17,3.57396
290.39,2.443296
292.61,5.6143
294.83,-4.65062
297.05,4.995186
299.27,2.842458
301.48,-0.241776
303.7,6.928
305.91,9.34996
308.13,6.10652
310.35,4.78938
312.56,2.736998
314.77,5.65482
316.99,-2.349504
319.2,-5.1437
321.41,1.48012
323.62,0.3646482
325.83,-0.021689
328.04,2.41548
330.25,-4.991844
332.46,-0.331444
334.67,4.89314
336.88,10.35058
339.08,12.1239
341.29,22.2474
343.5,33.6874
345.7,67.7462
347.91,132.744
350.11,301.218
352.31,568.79
354.52,740.046
356.72,644.074
358.92,410.51
361.12,232.974
363.32,130.762
365.52,78.3938
367.72,53.1436
369.92,33.8132
372.12,34.8582
374.32,46.083
376.51,68.1532
378.71,75.656
380.9,65.1584
383.1,35.9572
385.29,22.625
387.49,11.67604
389.68,1.170738
391.87,-2.289036
394.07,-1.3001
396.26,1.11222
398.45,1.6731
400.64,1.59252
402.83,12.13596
405.02,16.14496
407.21,33.2212
409.39,56.7182
411.58,138.122
413.77,379.814
415.95,656.908
418.14,700
420.32,456.938
422.51,220.054
424.69,119.208
426.87,85.1444
429.06,81.893
431.24,72.1108
433.42,55.4696
435.6,29.1796
437.78,11.28074
439.96,9.32078
442.14,-0.1701454
444.31,9.72292
446.49,29.5896
448.67,47.384
450.84,41.8872
453.02,14.72814
455.19,1.797272
457.37,1.05816
459.54,-6.889678
461.71,-5.196326
463.89,-2.44504
466.06,-0.9409738
468.23,-7.2475
470.4,-11.028872
472.57,-6.79348
474.74,-7.24518
476.91,-6.6203
479.07,-9.15116
481.24,3.26476
483.41,9.1006
485.57,5.16936
487.74,3.63586
489.9,8.11174
492.07,5.3852
494.23,-2.69216
496.4,-4.198816
498.56,-3.3664
500.72,-9.36338
502.88,-12.10206
505.04,-7.70886
507.2,-8.54568
509.36,-5.452172
511.52,-8.65192
513.68,-2.75146
515.83,-0.00602
517.99,1.060894
520.14,-0.737272
522.3,-2.66334
524.45,2.932326
526.61,-2.00542
528.76,-1.967992
530.91,6.159216
533.07,7.5276
535.22,7.3555
537.37,5.44468
539.52,9.90446
541.67,12.675718
543.82,6.84586
545.97,5.65456
548.11,6.65752
550.26,-0.950894
552.41,1.5631
554.55,0.7492
556.7,2.517446
558.84,4.98942
560.98,13.43732
563.13,15.16644
565.27,21.6836
567.41,28.3258
569.55,49.8156
571.69,82.212
573.83,158.702
575.97,243.806
578.11,312.506
580.25,433.188
582.39,794.872
584.52,1439.78
586.66,1948.1
588.79,1840.86
590.93,1253.08
593.06,698.222
595.19,364.962
597.33,201.454
599.46,109.0052
601.59,60.6348
603.72,31.1276
605.85,9.53556
607.98,0.0619762
610.11,-3.91094
612.24,-13.08978
614.36,-12.19252
616.49,-10.538684
618.62,-3.856596
620.74,-3.141643
622.87,0.369476
624.99,-0.9952894
627.11,4.722502
629.24,-1.4263
631.36,-0.92192
633.48,1.888102
635.6,1.26395
637.72,2.02386
639.84,-2.615802
641.96,0.0628654
644.08,-3.27378
646.2,-3.66648
648.31,-4.41346
650.43,-13.03236
652.54,-16.7807
654.66,-10.78664
656.77,-12.39064
658.89,-16.334
661,-17.3844
663.11,-11.783238
665.22,-15.997106
667.33,-17.2292
669.44,-24.5142
671.55,-26.2474
673.66,-27.6548
675.77,-34.315
677.88,-30.9654
679.98,-31.4366
682.09,-33.3932
684.2,-25.821
686.3,-29.0424
688.4,-30.6246
690.51,-23.428
692.61,-22.4132
694.71,-20.12074
696.81,-22.6648
698.92,-23.15622
701.02,-23.3856
703.11,-20.2836
705.21,-13.290178
707.31,-15.22804
709.41,-9.360262
711.51,-6.719
713.6,-2.5926
715.7,-6.9488
717.79,-7.192146
719.89,-4.5692
721.98,0.6328
724.07,-4.369476
726.16,-3.74362
728.25,0.320086
730.35,3.700138
732.44,11.55848
734.52,27.8066
736.61,41.4332
738.7,63.8172
740.79,86.3538
742.87,129.334
744.96,178.628
747.05,234.606
749.13,263.688
751.21,266.35
753.3,230.652
755.38,176.248
757.46,122.664
759.54,90.8316
761.62,59.9872
763.7,38.579
765.78,30.7704
767.86,16.5746
769.94,14.05658
772.01,2.3403
774.09,-0.342956
776.17,0.964274
778.24,-0.67552
780.32,0.276138
782.39,-0.8155
784.46,-3.070966
786.53,6.1131836
788.61,7.95918
790.68,7.25202
792.75,11.07242
794.82,12.51258
796.89,11.74764
798.95,11.42204
801.02,11.381
803.09,9.66902
805.15,19.82888
807.22,40.96
809.28,96.1972
811.35,223.812
813.41,342.818
815.47,340.8
817.53,220.574
819.6,110.932
821.66,58.8966
823.72,32.8046
825.78,15.38614
827.83,13.10078
829.89,4.436108
831.95,10.94192
834,7.33892
836.06,4.58004
838.12,5.110386
840.17,5.20254
842.22,8.94594
844.28,3.971
846.33,7.707816
848.38,6.11384
850.43,7.88906
852.48,8.46736
854.53,5.656136
856.58,4.80756
858.63,10.67262
860.67,8.39004
862.72,5.67826
864.77,10.17738
866.81,7.36606
868.86,1.5079
870.9,-1.63054
872.94,2.057736
874.98,-0.5621262
877.03,1.59275
879.07,0.202466
881.11,-4.46566
883.15,3.44104
885.19,0.39634
887.22,-1.19792
889.26,3.6031
891.3,1.29684
893.33,-1.12226
895.37,-4.81556
897.4,-1.98958
899.44,0
901.47,-7.03582
903.5,-3.86038
905.54,2.35636
907.57,5.12048
909.6,4.0331
911.63,-2.49214
913.66,0.409800000000001
915.68,0.28872
917.71,2.30242
919.74,-1.82272
921.76,2.340052
923.79,-6.6856
925.82,0.1511
927.84,0.793358
929.86,5.04554
931.89,5.38618
933.91,10.0561
935.93,5.9947174
937.95,4.562624
939.97,-2.97132
941.99,1.329178
944.01,-0.74899
946.02,2.33448
948.04,4.12558
950.06,1.354804
952.07,2.688526
954.09,1.08088
956.1,2.44436
958.12,5.3802
960.13,8.215092
962.14,6.37218
964.15,5.2340592
966.16,-0.8051118
968.17,-0.480668
970.18,0.0440262
972.19,-1.241392
974.2,3.878368
976.2,2.32846
978.21,3.790268
980.22,7.32806
982.22,9.83698
984.22,8.9643
986.23,8.55814
988.23,4.78324
990.23,9.14594
992.23,9.95844
994.24,7.60394
996.23,9.2929
998.23,9.943968
1000.2,11.65292
1002.2,13.9924
1004.2,13.5487
1006.2,13.9046
1008.2,18.3842
1010.2,18.2742
1012.2,18.1514
1014.2,17.59344
1016.2,20.2056
1018.2,20.1156
1020.2,20.2162
1022.2,24.8102
1024.2,30.0122
1026.1,35.3352
1028.1,55.0734
1030.1,104.9228
1032.1,203.76
1034.1,274.652
1036.1,244.832
1038.1,155.82
1040.1,83.2118
1042,49.5244
1044,36.2682
1046,28.7336
1048,26.0774
1050,28.3708
1051.9,29.0638
1053.9,23.287
1055.9,22.9774
1057.9,19.21266
1059.9,14.6913
1061.8,10.557584
1063.8,11.2535
1065.8,14.81826
1067.8,11.54148
1069.7,11.00392
1071.7,10.88612
1073.7,14.98068
1075.6,14.65914
1077.6,13.1936
1079.6,11.88826
1081.5,9.18568
1083.5,11.6115
1085.5,3.13954
1087.5,6.5981
1089.4,2.522626
1091.4,0.355026
1093.3,0.00770000000000017
1095.3,1.73022
1097.3,1.78608
1099.2,6.78722
1101.2,0.662646
1103.2,4.51016
1105.1,2.99577
1107.1,0.40256
1109,2.5342
1111,3.37056
1113,1.22961
1114.9,-3.29346
1116.9,3.75386
1118.8,-3.454046
1120.8,2.9857
1122.7,8.80478
1124.7,7.94862
1126.6,6.76124
1128.6,6.16548
1130.5,2.30138
1132.5,0.76118
1134.4,0.95396
1136.4,6.08636
1138.3,7.4446
1140.3,9.5048
1142.2,9.6100494
1144.2,6.35754
1146.1,15.08784
1148.1,10.17628
1150,15.79874
1151.9,13.01018
1153.9,10.3974
1155.8,12.42012
1157.8,5.38766
1159.7,9.55096
1161.6,7.70948
1163.6,16.7656
1165.5,12.32826
1167.5,18.3208
1169.4,19.0846
1171.3,18.5102
1173.3,16.485
1175.2,18.5578
1177.1,14.9511
1179.1,18.0524
1181,15.065
1182.9,18.9168
1184.9,16.545
1186.8,19.679
1188.7,20.9388
1190.6,16.6124
1192.6,20.4746
1194.5,23.026
1196.4,19.6184
1198.4,23.4704
1200.3,25.7228
1202.2,23.1302
1204.1,21.7874
1206,21.1282
1208,23.8674
1209.9,28.0926
1211.8,29.3534
1213.7,33.0164
1215.6,33.308
1217.6,32.3258
1219.5,35.17
1221.4,31.7288
1223.3,31.8354
1225.2,33.7176
1227.1,39.1386
1229.1,43.2294
1231,40.114
1232.9,41.9544
1234.8,47.7458
1236.7,49.2966
1238.6,53.094
1240.5,55.5642
1242.4,65.8376
1244.3,75.3472
1246.2,78.5222
1248.1,79.3352
1250.1,84.6044
1252,91.9288
1253.9,98.5274
1255.8,116.24
1257.7,124.47
1259.6,140.232
1261.5,164.042
1263.4,188.98
1265.3,213.59
1267.2,237.298
1269.1,260.002
1271,290.856
1272.9,311.882
1274.8,321.47
1276.6,322.04
1278.5,314.96
1280.4,311.628
1282.3,344.87
1284.2,375.772
1286.1,340.45
1288,250.934
1289.9,195.334
1291.8,156.068
1293.7,135.542
1295.6,121.73
1297.4,111.916
1299.3,106.178
1301.2,103.23
1303.1,98.9488
1305,99.1992
1306.9,92.5416
1308.7,92.4066
1310.6,87.3392
1312.5,82.1192
1314.4,81.35
1316.3,81.3858
1318.1,78.954
1320,80.3748
1321.9,78.306
1323.8,77.7366
1325.7,76.4254
1327.5,80.4088
1329.4,77.5286
1331.3,74.9274
1333.1,82.2078
1335,77.9822
1336.9,82.382
1338.8,81.8202
1340.6,81.1742
1342.5,84.9326
1344.4,87.516
1346.2,94.0436
1348.1,98.6046
1350,102.5388
1351.8,106.5786
1353.7,112.964
1355.6,121.254
1357.4,125.714
1359.3,136.744
1361.1,147.992
1363,162.638
1364.9,187.688
1366.7,213.716
1368.6,242.006
1370.4,291.412
1372.3,347.866
1374.2,441.712
1376,561.502
1377.9,721.464
1379.7,881.482
1381.6,1000.132
1383.4,1045.86
1385.3,1044.22
1387.1,970.78
1389,790.796
1390.8,562.184
1392.7,404.61
1394.5,307.608
1396.4,244.176
1398.2,206.568
1400.1,172.536
1401.9,148.48
1403.8,131.914
1405.6,121.2
1407.4,111.368
1409.3,97.2254
1411.1,88.095
1413,63
1414.8,53.9294
1416.6,49.414
1418.5,40.7816
1420.3,39.6284
1422.2,31.2312
1424,32.6004
1425.8,22.0088
1427.7,19.3814
1429.5,16.46678
1431.3,15.611
1433.2,6.38156
1435,5.007574
1436.8,9.91274
1438.7,10.05202
1440.5,7.113662
1442.3,3.640808
1444.1,4.438952
1446,6.294716
1447.8,4.20328
1449.6,2.37486
1451.4,-0.244532
1453.3,1.99264
1455.1,0.87694
1456.9,-0.48732
1458.7,-1.524822
1460.6,-3.007914
1462.4,-3.84784
1464.2,-4.4238
1466,-6.72991
1467.8,-5.25492
1469.6,-4.23028
1471.5,-6.03777
1473.3,-9.18416
1475.1,-9.43568
1476.9,-9.528
1478.7,-8.9448
1480.5,-6.2477
1482.4,-7.62322
1484.2,-6.027108
1486,-4.2049
1487.8,-7.36664
1489.6,-9.11224
1491.4,-4.961986
1493.2,-3.5664
1495,-4.528682
1496.8,-2.28892
1498.6,-3.345758
1500.4,-1.341232
1502.2,-3.98276
1504,-4.638682
1505.8,-3.03426
1507.6,1.14317
1509.4,0.6077
1511.2,-0.694794
1513,-2.94638
1514.8,0.39426
1516.6,-3.24268
1518.4,-0.605238
1520.2,2.7236
1522,0.61794
1523.8,-3.17632
1525.6,-5.0307
1527.4,-0.634266
1529.2,0.994324
1531,-0.15778
1532.8,-2.774702
1534.6,2.576592
1536.4,-0.0994660000000001
1538.2,0.0582759999999999
1539.9,-2.55312
1541.7,1.45136
1543.5,8.3357
1545.3,5.9044
1547.1,3.92822
1548.9,13.07864
1550.7,18.0117
1552.4,20.9174
1554.2,28.7508
1556,34.2686
1557.8,31.6744
1559.6,22.2834
1561.3,26.0936
1563.1,23.6388
1564.9,31.189
1566.7,32.686
1568.4,37.2418
1570.2,42.2696
1572,41.5954
1573.8,49.5918
1575.5,50.8074
1577.3,58.762
1579.1,59.8156
1580.9,62.8834
1582.6,67.6098
1584.4,80.336
1586.2,84.2864
1587.9,87.393
1589.7,88.6954
1591.5,99.8216
1593.2,104.188
1595,107.564
1596.8,109.008
1598.5,117.356
1600.3,130.378
1602,137.002
1603.8,145.906
1605.6,155.142
1607.3,159.734
1609.1,168.544
1610.8,177.796
1612.6,176.622
1614.4,183.86
1616.1,188.15
1617.9,196.39
1619.6,204.862
1621.4,209.112
1623.1,214.916
1624.9,221.282
1626.6,224.066
1628.4,230.83
1630.1,237.16
1631.9,237.608
1633.6,238.952
1635.4,237.772
1637.1,243.942
1638.9,244.212
1640.6,245.928
1642.4,243.14
1644.1,246.004
1645.8,248.956
1647.6,248.23
1649.3,245.728
1651.1,241.882
1652.8,235.83
1654.6,234.758
1656.3,228.864
1658,229.854
1659.8,226.544
1661.5,220.072
1663.2,217.92
1665,212.75
1666.7,208.696
1668.4,204.222
1670.2,198.796
1671.9,193.356
1673.6,189.022
1675.4,183.728
1677.1,177.144
1678.8,173.92
1680.5,167.508
1682.3,163.636
1684,153.992
1685.7,146.058
1687.5,146.176
1689.2,136.766
1690.9,131.574
1692.6,131.822
1694.3,122.314
1696.1,120.178
1697.8,111.58
1699.5,109.242
1701.2,102.976
1702.9,99.1108
1704.7,93.5822
1706.4,91.9284
1708.1,83.1812
1709.8,86.3358
1711.5,79.9534
1713.2,79.5498
1714.9,74.6694
1716.7,68.9498
1718.4,71.0978
1720.1,64.1454
1721.8,58.9912
1723.5,56.2268
1725.2,50.7628
1726.9,50.1292
1728.6,49.5118
1730.3,45.3466
1732,45.6016
1733.7,40.2482
1735.4,37.26
1737.1,37.3376
1738.8,37.0672
1740.6,31.556
1742.3,28.4934
1744,33.481
1745.7,24.803
1747.3,22.0388
1749,19.466
1750.7,17.987
1752.4,14.49386
1754.1,14.35312
1755.8,15.9751
1757.5,14.79046
1759.2,16.05446
1760.9,13.66024
1762.6,10.25118
1764.3,6.01096
1766,11.45336
1767.7,8.39458
1769.4,9.92924
1771.1,8.119154
1772.7,7.13728
1774.4,7.75477
1776.1,7.94052
1777.8,5.91128
1779.5,-0.18598
1781.2,5.78642
1782.8,5.371354
1784.5,1.2505
1786.2,2.39308
1787.9,-2.39086
1789.6,1.947304
1791.2,-1.07636
1792.9,-3.035344
1794.6,3.12752
1796.3,-4.12982
1798,-0.9903
1799.6,-2.104736
1801.3,-2.349
1803,-2.29872
1804.7,-1.14418
1806.3,-4.890696
1808,-2.997574
1809.7,-3.935461
1811.3,-5.56977
1813,-1.578844
1814.7,-3.5266946
1816.3,0.7293
1818,-0.13648
1819.7,-4.8031
1821.3,-0.744582
1823,1.36956
1824.7,0.98798
1826.3,-1.214762
1828,-4.565142
1829.7,-1.24092
1831.3,-2.678256
1833,-1.49658
1834.6,-0.810356
1836.3,-2.376266
1838,-2.1640596
1839.6,-4.6921316
1841.3,-0.57456
1842.9,0.01252
1844.6,-1.2127
1846.2,-0.02386
1847.9,-5.30236
1849.5,-0.0975232
1851.2,4.17356
1852.8,-0.785538
1854.5,-0.76308
1856.1,2.068406
1857.8,0.57042
1859.4,-2.7226516
1861.1,-3.110156
1862.7,-2.878882
1864.4,-0.345062
1866,-2.11608
1867.7,0.40912
1869.3,0.604314
1871,-0.0330599999999997
1872.6,2.95278
1874.2,2.795336
1875.9,-0.71809
1877.5,-0.777754
1879.2,0
1880.8,1.079224
1882.4,-5.0538766
1884.1,-0.073712
1885.7,-1.65266
1887.3,1.439642
1889,-2.352074
1890.6,0.80784
1892.2,1.3168908
1893.9,6.46383
1895.5,-4.250242
1897.1,-2.060206
1898.8,0.11784
1900.4,-1.133138
1902,-1.412978
1903.7,0.65646
1905.3,-0.866256
1906.9,-4.16622
1908.5,-1.6323912
1910.2,0.464396
1911.8,1.513134
1913.4,-1.05182
1915,4.732008
1916.7,-2.080394
1918.3,2.266352
1919.9,-0.642782
1921.5,1.95298
1923.1,2.391496
1924.8,1.80404
1926.4,-0.65326
1928,3.8129
1929.6,0.907136
1931.2,2.63958
1932.8,2.047804
1934.4,4.575048
1936.1,2.39828
1937.7,5.57228
1939.3,3.2181
1940.9,-0.714454
1942.5,4.815932
1944.1,3.359226
1945.7,1.241198
1947.3,2.31466
1948.9,2.37292
1950.5,5.620634
1952.1,-0.25642288
1953.8,4.34038
1955.4,6.69866
1957,5.3043452
1958.6,2.1006
1960.2,2.013666
1961.8,6.51098
1963.4,4.72058
1965,2.007818
1966.6,1.7762
1968.2,2.140974
1969.8,1.285206
1971.4,4.31542
1973,4.56296
1974.5,7.26164
1976.1,-0.50956
1977.7,4.376278
1979.3,0.865052
1980.9,2.898544
1982.5,1.55752
1984.1,4.531836
1985.7,4.38596
1987.3,2.341616
1988.9,5.176234
1990.5,7.24722
1992,7.29062
1993.6,3.998214
1995.2,4.77544
1996.8,3.580894
1998.4,5.1372
2000,0.21328
2001.6,4.96252
2003.1,6.090202
2004.7,4.767466
2006.3,4.825
2007.9,3.0692066
2009.5,7.13336
2011,5.37562
2012.6,8.250524
2014.2,7.33482
2015.8,4.051008
2017.3,3.809848
2018.9,-1.092348
2020.5,5.8099
2022.1,4.5628
2023.6,4.600818
2025.2,5.10492
2026.8,3.679802
2028.3,2.56676
2029.9,3.9675
2031.5,1.955942
2033,5.23988
2034.6,3.616876
2036.2,-0.271528
2037.7,3.336262
2039.3,3.6664
2040.9,4.64306
2042.4,2.052382
2044,3.1285228
2045.6,2.070884
2047.1,4.56528
2048.7,3.763294
2050.2,5.73972
2051.8,3.04316
2053.4,3.911006
2054.9,0.947974
2056.5,1.113546
2058,1.60246
2059.6,-3.694
2061.1,4.9246
2062.7,2.8763186
2064.2,0.431538
2065.8,3.936126
2067.3,0.0130399999999996
2068.9,0.744764
2070.4,4.303476
2072,-1.4341854
2073.5,-0.8095
2075.1,-1.58058
2076.6,-0.1246192
2078.2,0.1061538
2079.7,3.5692076
2081.3,2.02082
2082.8,0.5413
2084.4,3.657596
2085.9,4.243796
2087.4,1.35532
2089,-0.918176
2090.5,3.060632
2092.1,0.189116
2093.6,0.6656888
2095.1,3.77256
2096.7,5.313562
2098.2,4.18632
2099.7,1.615076
2101.3,0.99414
2102.8,5.5799
2104.3,3.515362
2105.9,6.07936
2107.4,7.55988
2108.9,5.071324
2110.5,3.713712
2112,3.059314
2113.5,2.711616
2115.1,5.01682
2116.6,2.29818
2118.1,6.51972744
2119.6,4.57898
2121.2,4.857982
2122.7,4.22396
2124.2,4.79318
2125.7,3.466582
2127.3,5.751718
2128.8,7.95558
2130.3,11.8055
2131.8,9.16204
2133.3,20.1466
2134.9,32.0816
2136.4,46.5904
2137.9,60.7726
2139.4,81.378
2140.9,92.3388
2142.4,85.1676
2144,62.2082
2145.5,35.4488
2147,24.4988
2148.5,15.7074
2150,8.54962
2151.5,6.21006
2153,5.41408
2154.5,4.34186
2156,4.6585
2157.6,1.922228
2159.1,2.590878
2160.6,2.8554
2162.1,1.01
2163.6,-0.958984
2165.1,0.803898
2166.6,0.32302
2168.1,-1.63744
2169.6,-6.27266
2171.1,-0.44415
2172.6,-1.058664
2174.1,-4.061024
2175.6,-2.402164
2177.1,-2.71966
2178.6,-2.69734
2180.1,-3.407872
2181.6,-3.498678
2183.1,-3.00138
2184.6,-4.439866
2186.1,-0.87248
2187.5,-5.787262
2189,-1.50216
2190.5,-4.407596
2192,-3.80332
2193.5,-2.44212
2195,-3.050446
2196.5,-6.0197
2198,-2.65328
2199.5,-5.36884
2201,-7.5623
2202.4,-6.0128216
2203.9,-5.21774
2205.4,-5.43766
2206.9,-1.551564
2208.4,-2.858098
2209.9,-4.26259
2211.3,-1.736586
2212.8,-4.88453
2214.3,-5.611328
2215.8,-3.24586
2217.3,-3.90192
2218.7,-8.12642
2220.2,-4.36642
2221.7,-4.33516
2223.2,-3.72054
2224.6,-4.178368
2226.1,-7.18164
2227.6,-10.1536
2229.1,-8.12228
2230.5,-9.12472
2232,-4.5147592
2233.5,-5.793108
2234.9,-3.51476
2236.4,-4.82724
2237.9,-7.051244
2239.3,-4.5948
2240.8,-4.64276
2242.3,-3.421644
2243.7,-2.03178
2245.2,-2.379
2246.7,-6.570192
2248.1,-4.2705
2249.6,-6.44118
2251.1,-4.79762
2252.5,-4.8673
2254,-5.68024
2255.4,-5.31954
2256.9,-5.82792
2258.3,-3.24072
2259.8,-5.15606
2261.3,-7.581488
2262.7,0.309142
2264.2,-4.787304
2265.6,0.000100000000000122
2267.1,-0.68542
2268.5,-3.73868
2270,-3.17797
2271.4,-6.256006
2272.9,-1.20772
2274.3,0
2275.8,-5.12536
2277.2,-2.58727
2278.7,-3.548274
2280.1,-5.346214
2281.6,-2.68762
2283,-0.0500800000000002
2284.5,-0.9650406
2285.9,-5.080658
2287.4,-2.3451
2288.8,-1.040614
2290.2,-1.870196
2291.7,-0.45782
2293.1,-0.71482
2294.6,-1.565358
2296,-1.11416
2297.4,-0.0629599999999999
2298.9,-5.27098
2300.3,-1.008106
2301.7,-2.96618
2303.2,0.06548
2304.6,-3.98438
2306,-2.813626
2307.5,-0.137286
2308.9,-1.93324
2310.3,-0.661028
2311.8,-0.70516
2313.2,0.411412
2314.6,0.264616
2316.1,0.72174
2317.5,0.890688
2318.9,-1.020402
2320.3,0.816614
2321.8,1.78408
2323.2,6.05376
2324.6,8.93436
2326,13.95158
2327.5,25.369
2328.9,29.8294
2330.3,27.0532
2331.7,20.6434
2333.2,15.59676
2334.6,10.16148
2336,6.75824
2337.4,5.179852
2338.8,2.25904
2340.2,1.4477
2341.7,2.99022
2343.1,0.0215600000000003
2344.5,2.87988
2345.9,3.352774
2347.3,-2.351596
2348.7,0.6873
2350.1,1.62478
2351.6,4.438736
2353,6.78258
2354.4,3.7128786
2355.8,2.8169
2357.2,0.4948
2358.6,-3.786958
2360,1.694844
2361.4,7.35442
2362.8,3.169144
2364.2,2.434062
2365.6,1.36478
2367,8.10256
2368.4,5.01359
2369.8,4.54196
2371.2,2.512904
2372.6,7.01468
2374,1.55156
2375.4,4.0430624
2376.8,3.0906
2378.2,7.19798
2379.6,6.29554
2381,4.542254
2382.4,4.277792
2383.8,4.705156
2385.2,-0.652316
2386.6,2.088796
2388,2.838222
2389.4,1.604856
2390.8,4.960398
2392.1,3.30022
2393.5,4.9694
2394.9,2.678054
2396.3,2.06006
2397.7,5.60734
2399.1,2.093098
2400.5,3.561404
2401.9,0.0475599999999998
2403.2,3.13321
2404.6,4.953746
2406,1.559818
2407.4,3.182856
2408.8,3.601124
2410.2,6.228598
2411.5,4.244118
2412.9,-1.70692
2414.3,4.67496
2415.7,0
2417,-0.399668
2418.4,4.29782
2419.8,2.30964
2421.2,0.72476
2422.5,1.764966
2423.9,1.728284
2425.3,4.62738
2426.7,3.321156
2428,2.847818
2429.4,3.246244
2430.8,1.01883
2432.1,2.581352
2433.5,1.6471378
2434.9,-0.33556
2436.2,-0.8568
2437.6,0.77076
2439,1.841382
2440.3,1.121706
2441.7,4.666462
2443.1,2.04074
2444.4,3.075454
2445.8,1.25134
2447.2,-0.25784
2448.5,0.0161399999999999
2449.9,-0.962248
2451.2,3.124682
2452.6,-0.516952
2454,3.0721882
2455.3,3.05362
2456.7,1.12168
2458,2.846508
2459.4,0.41946
2460.7,4.86591
2462.1,3.3251
2463.4,3.227792
2464.8,1.7918122
2466.1,4.56314
2467.5,4.12827
2468.8,3.223851
2470.2,3.844832
2471.5,5.545532
2472.9,-0.112586
2474.2,-2.4114022
2475.6,2.9160842
2476.9,2.993142
2478.3,3.339656
2479.6,4.0807
2481,2.656866
2482.3,2.05266
2483.6,-1.66348
2485,1.95632
2486.3,0.224454
2487.7,1.96472
2489,-0.452434
2490.3,2.13982
2491.7,1.914944
2493,-1.957294
2494.4,1.615566
2495.7,2.49804
2497,0.662598
2498.4,3.06022
2499.7,-0.96712
2501,-0.569688
2502.4,-1.422408
2503.7,0.703698
2505,2.00426
2506.4,2.46406
2507.7,4.69518
2509,2.24684
2510.3,-2.89988
2511.7,-1.2089918
2513,-1.804766
2514.3,-4.495252
2515.6,-0.61386
2517,-3.03798
2518.3,-3.1826
2519.6,1.176196
2520.9,0
2522.3,-0.905106
2523.6,-2.88992
2524.9,-3.80882
2526.2,-0.92592
2527.5,-0.37245
2528.9,-2.122116
2530.2,0.719288
2531.5,1.199674
2532.8,-3.37268
2534.1,0.404518
2535.4,0.30568
2536.8,1.75197
2538.1,1.46524
2539.4,2.9001904
2540.7,0.53588
2542,1.68398
2543.3,0.6813124
2544.6,0.8674624
2545.9,-0.73264
2547.2,0.93108
2548.6,0.65368
2549.9,2.693728
2551.2,-2.354642
2552.5,-1.2743
2553.8,2.353266
2555.1,0.52076
2556.4,-0.710886
2557.7,1.673106
2559,2.7533
2560.3,2.089614
2561.6,-0.745668
2562.9,0.553454
2564.2,3.6514
2565.5,1.809444
2566.8,4.07272
2568.1,-0.277606
2569.4,2.709208
2570.7,2.325042
2572,1.97081
2573.3,2.623072
2574.6,0.4373514
2575.9,0.381094
2577.1,0.22658
2578.4,5.78852
2579.7,3.447942
2581,0.995096
2582.3,3.1864
2583.6,5.79322
2584.9,2.292014
2586.2,3.05264
2587.5,1.154854
2588.7,1.57566
2590,6.40576
2591.3,4.1450122
2592.6,4.38712
2593.9,2.73514
2595.2,3.92604
2596.4,3.08564
2597.7,2.45382
2599,4.82494
2600.3,4.054906
2601.6,4.35898
2602.8,0.61964
2604.1,3.948692
2605.4,2.11762
2606.7,1.23749
2608,4.117036
2609.2,3.7687866
2610.5,5.260934
2611.8,0.8872
2613,3.064474
2614.3,-0.179646
2615.6,4.20858
2616.9,3.24078
2618.1,1.577496
2619.4,1.378268
2620.7,3.8145
2621.9,4.05711
2623.2,2.44094
2624.5,2.31078
2625.7,-0.37832
2627,-0.733338
2628.3,2.64106
2629.5,0
2630.8,4.843396
2632.1,2.96282
2633.3,3.21925584
2634.6,2.60422
2635.8,2.534768
2637.1,-0.46738
2638.4,-1.107758
2639.6,2.080092
2640.9,3.54712
2642.1,2.7320268
2643.4,3.47548
2644.6,2.069974
2645.9,0.391418
2647.2,-4.20824
2648.4,2.519948
2649.7,2.51628
2650.9,1.693592
2652.2,-0.19416
2653.4,-1.193564
2654.7,3.337
2655.9,1.26028
2657.2,3.363586
2658.4,2.237608
2659.7,4.52488
2660.9,1.52486
2662.2,2.57582
2663.4,4.007464
2664.6,1.762676
2665.9,2.813788
2667.1,1.819968
2668.4,3.44957
2669.6,3.650002
2670.9,0.35434
2672.1,-0.7052
2673.3,2.964646
2674.6,1.664088
2675.8,2.18277
2677.1,1.927862
2678.3,1.245526
2679.5,0.262364
2680.8,-0.557754
2682,3.263051
2683.2,1.746416
2684.5,2.2653
2685.7,1.136212
2686.9,1.404948
2688.2,0.70306
2689.4,0.0077200000000003
2690.6,2.33472
2691.9,-1.09142
2693.1,1.597032
2694.3,1.422738
2695.5,2.07096
2696.8,1.869266
2698,-2.01378
2699.2,1.403428
2700.4,0.79602
2701.7,0.72744
2702.9,4.983074
2704.1,2.18699
2705.3,2.27571
2706.6,-0.94986
2707.8,-0.100582
2709,0.51048
2710.2,-2.927126
2711.4,-1.142876
2712.6,1.947924
2713.9,0.63048
2715.1,0.101944
2716.3,1.41398
2717.5,0.175734
2718.7,3.031744
2719.9,1.65406
2721.2,1.35872
2722.4,0.5331
2723.6,1.022584
2724.8,2.085876
2726,0
2727.2,0.674206
2728.4,2.0674
2729.6,-0.326794
2730.8,0.5856492
2732,1.235602
2733.3,-1.688064
2734.5,-0.34714
2735.7,1.6705308
2736.9,-0.018042
2738.1,-0.75042
2739.3,-2.95478
2740.5,-1.667184
2741.7,0.90688
2742.9,-2.138044
2744.1,-0.948822
2745.3,-2.3948248
2746.5,-0.99604
2747.7,0.42536
2748.9,-2.01144
2750.1,0.558136
2751.3,1.15986
2752.5,-2.84118
2753.7,-2.267744
2754.9,-2.805408
2756,-2.23658
2757.2,1.60064
2758.4,1.82738
2759.6,-3.039846
2760.8,-0.90394
2762,-0.206874
2763.2,-1.669032
2764.4,-2.80287
2765.6,-0.51524
2766.8,-2.0926
2767.9,-3.671003
2769.1,-1.321016
2770.3,1.3936
2771.5,0.0709017999999999
2772.7,1.391522
2773.9,-0.81086
2775.1,0.74878054
2776.2,-0.11862
2777.4,-0.0338200000000001
2778.6,-0.526352
2779.8,-0.53615
2781,0.13236
2782.1,-1.25492
2783.3,-0.40222
2784.5,2.961154
2785.7,-1.72122
2786.8,0.53836
2788,1.41158
2789.2,-0.135776
2790.4,-2.2686
2791.5,1.4104
2792.7,4.0559
2793.9,-1.533496
2795.1,0.902454
2796.2,2.702018
2797.4,-0.520302
2798.6,-0.950732
2799.7,-1.51888
2800.9,-2.66100568
2802.1,-1.94324
2803.2,-2.870136
2804.4,0.189428
2805.6,0.90738
2806.7,-1.38472
2807.9,0.261774
2809.1,-0.539516
2810.2,-0.25314
2811.4,-0.892698
2812.6,-1.579796
2813.7,-1.590502
2814.9,-0.31546
2816,1.379646
2817.2,-0.643782
2818.4,0
2819.5,2.2874
2820.7,0.86076
2821.8,-0.91344
2823,3.589962
2824.1,0.42138
2825.3,-0.8432076
2826.4,0.0529260000000003
2827.6,2.13522
2828.7,0.7582926
2829.9,1.361308
2831,2.0534776
2832.2,0.1202
2833.3,2.10482
2834.5,0.543092
2835.6,2.12787
2836.8,-2.34596
2837.9,-2.76782
2839.1,1.945812
2840.2,0.903788
2841.4,-0.1518
2842.5,0.00541400000000012
2843.7,0.653014
2844.8,-0.0919199999999998
2845.9,-1.18796
2847.1,-1.611326
2848.2,0.6498522
2849.4,1.199154
2850.5,-0.37998
2851.7,0.74855
2852.8,-2.5808
2853.9,2.5141
2855.1,2.22908
2856.2,2.503924
2857.3,-0.0455200000000003
2858.5,-0.965102
2859.6,2.6026
2860.7,-1.58914
2861.9,-1.1972
2863,0.83638
2864.1,-0.0866557999999997
2865.3,-0.169264
2866.4,-4.01136
2867.5,3.34546
2868.7,0.17886
2869.8,-0.690708
2870.9,-2.79998
2872,-1.486486
2873.2,-2.389056
2874.3,1.374834
2875.4,3.34672
2876.5,-2.5219
2877.7,0.35386
2878.8,1.23118
2879.9,-2.095074
2881,1.972516
2882.2,2.82124
2883.3,2.703028
2884.4,1.157412
2885.5,1.03058
2886.6,0.632406
2887.8,-2.68538
2888.9,0.562466
2890,3.51514
2891.1,3.163332
2892.2,-0.7328468
2893.3,1.864422
2894.4,1.920834
2895.6,4.298026
2896.7,-0.91808
2897.8,1.574522
2898.9,7.098098
2900,2.287242
2901.1,1.906266
2902.2,1.45636
2903.3,3.24874
2904.4,2.92168
2905.6,4.56858
2906.7,3.89364
2907.8,2.660922
2908.9,1.041368
2910,5.15776
2911.1,5.07311
2912.2,4.107932
2913.3,1.094638
2914.4,3.02022
2915.5,4.36354
2916.6,8.30096
2917.7,7.12552
2918.8,2.548612
2919.9,7.01818
2921,6.019732
2922.1,5.29422
2923.2,6.67758
2924.3,4.66354
2925.4,5.41398
2926.5,5.899719
2927.6,4.85778
2928.7,5.17988
2929.8,6.813654
2930.8,8.36228
2931.9,7.14982
2933,9.3286
2934.1,8.60144
2935.2,9.60608
2936.3,9.4928
2937.4,8.45722
2938.5,10.43654
2939.6,7.65632
2940.6,9.90278
2941.7,9.6722
2942.8,9.6422
2943.9,12.9042
2945,14.56766
2946.1,8.745174
2947.2,10.67154
2948.2,13.10536
2949.3,11.13326
2950.4,12.57954
2951.5,9.98392
2952.6,14.24766
2953.6,13.5131
2954.7,11.4087
2955.8,13.67722
2956.9,14.5375
2957.9,11.79216
2959,13.63692
2960.1,15.5358
2961.2,12.86392
2962.2,15.05766
2963.3,15.0778
2964.4,16.7617
2965.5,11.27524
2966.5,15.65434
2967.6,17.5582
2968.7,13.57674
2969.7,19.1966
2970.8,17.5594
2971.9,18.32868
2973,18.806
2974,21.8172
2975.1,18.2368
2976.2,17.4642
2977.2,21.5368
2978.3,21.5642
2979.3,21.4418
2980.4,21.5706
2981.5,19.5434
2982.5,22.5394
2983.6,23.7654
2984.7,23.0244
2985.7,24.3722
2986.8,23.4818
2987.8,22.2492
2988.9,24.6704
2989.9,27.5758
2991,27.3426
2992.1,26.9148
2993.1,25.3582
2994.2,26.6082
2995.2,26.8228
2996.3,24.8122
2997.3,28.0346
2998.4,34.476
2999.4,29.923
3000.5,33.4622
3001.5,32.9606
3002.6,30.6714
3003.6,33.859
3004.7,32.8812
3005.7,35.1366
3006.8,37.4524
3007.8,35.5632
3008.9,35.9222
3009.9,36.4762
3011,36.3004
3012,41.753
3013,39.4024
3014.1,41.517
3015.1,42.511
3016.2,41.2194
3017.2,45.5712
3018.2,41.6924
3019.3,43.0028
3020.3,45.1876
3021.4,47.936
3022.4,46.4466
3023.4,48.7466
3024.5,44.9524
3025.5,49.924
3026.5,48.899
3027.6,50.5072
3028.6,53.047
3029.6,54.3402
3030.7,53.5566
3031.7,55.9612
3032.7,57.6806
3033.8,58.286
3034.8,56.0742
3035.8,57.1774
3036.9,59.7294
3037.9,60.7938
3038.9,62.6472
3039.9,64.3822
3041,62.3114
3042,65.6654
3043,66.8346
3044,68.9842
3045.1,71.335
3046.1,67.1102
3047.1,70.4796
3048.1,73.4458
3049.2,70.2858
3050.2,76.373
3051.2,77.0188
3052.2,78.5744
3053.2,78.9456
3054.3,76.5682
3055.3,78.916
3056.3,81.7026
3057.3,80.5164
3058.3,82.2788
3059.3,82.7648
3060.3,86.5274
3061.4,83.9352
3062.4,89.5598
3063.4,87.6368
3064.4,92.3852
3065.4,92.3594
3066.4,94.3084
3067.4,94.0022
3068.4,97.8136
3069.5,97.3638
3070.5,96.4384
3071.5,96.2324
3072.5,101.0106
3073.5,100.639
3074.5,102.3292
3075.5,100.7064
3076.5,104.8834
3077.5,106.5352
3078.5,108.9984
3079.5,109.512
3080.5,112.402
3081.5,111.992
3082.5,113.126
3083.5,114.242
3084.5,118.456
3085.5,115.07
3086.5,117.5
3087.5,121.238
3088.5,124.254
3089.5,123.924
3090.5,122.312
3091.5,126.292
3092.5,128.252
3093.5,131.378
3094.5,131.798
3095.5,135.392
3096.4,131.834
3097.4,131.654
3098.4,136.518
3099.4,133.758
3100.4,141.894
3101.4,140.118
3102.4,141.748
3103.4,144.968
3104.4,136.354
3105.3,150.19
3106.3,149.238
3107.3,153.296
3108.3,154.058
3109.3,157.168
3110.3,158.66
3111.3,161.334
3112.2,159.174
3113.2,164.686
3114.2,164.29
3115.2,164.052
3116.2,167.768
3117.1,170.99
3118.1,174.18
3119.1,171.424
3120.1,174.764
3121,178.434
3122,174.724
3123,177.56
3124,179.864
3124.9,182.016
3125.9,182.234
3126.9,189.104
3127.9,188.16
3128.8,193.716
3129.8,189.398
3130.8,188.472
3131.7,190.302
3132.7,196.438
3133.7,196.758
3134.7,199.242
3135.6,198.836
3136.6,199.59
3137.6,201.696
3138.5,204.768
3139.5,205.126
3140.4,207.748
3141.4,208.254
3142.4,206.974
3143.3,210.696
3144.3,213.398
3145.3,214.39
3146.2,215.658
3147.2,219.492
3148.1,214.892
3149.1,219.088
3150.1,218.502
3151,223.142
3152,222.592
3152.9,220.652
3153.9,223.932
3154.8,227.578
3155.8,225.214
3156.7,228.03
3157.7,227.176
3158.6,229.306
3159.6,222.32
3160.6,233.076
3161.5,234.488
3162.5,235.47
3163.4,234.11
3164.4,237.326
3165.3,230.57
3166.2,236.178
3167.2,236.514
3168.1,237.462
3169.1,231.902
3170,238.954
3171,236.96
3171.9,240.954
3172.9,235.8
3173.8,235.492
3174.7,239.67
3175.7,238.648
3176.6,243.564
3177.6,234.852
3178.5,235.76
3179.5,238.258
3180.4,238.67
3181.3,244.024
3182.3,241.526
3183.2,243.452
3184.1,239.402
3185.1,244.85
3186,237.834
3186.9,245.676
3187.9,243.762
3188.8,243.026
3189.7,239.104
3190.7,244.706
3191.6,239.512
3192.5,239.952
3193.5,241.398
3194.4,241.55
3195.3,240.224
3196.3,238.638
3197.2,241.964
3198.1,236.8
3199,234.308
3200,235.852
3200.9,233.89
3201.8,232.376
3202.7,236.506
3203.7,232.038
3204.6,234.636
3205.5,231.188
3206.4,231.1
3207.3,229.434
3208.3,229.518
3209.2,225.886
3210.1,223.972
3211,220.128
3211.9,222.228
3212.9,220.236
3213.8,214.738
3214.7,213.384
3215.6,214.04
3216.5,210.372
3217.4,210.842
3218.4,209.336
3219.3,201.918
3220.2,200.978
3221.1,199.302
3222,200.064
3222.9,192.87
3223.8,192.486
3224.7,189.134
3225.6,191.992
3226.6,189.996
3227.5,183.332
3228.4,186.598
3229.3,178.212
3230.2,178.09
3231.1,170.64
3232,173.236
3232.9,166.758
3233.8,165.174
3234.7,160.154
3235.6,162.962
3236.5,156.62
3237.4,151.722
3238.3,149.426
3239.2,150.678
3240.1,139.756
3241,143.848
3241.9,130.468
3242.8,130.856
3243.7,123.746
3244.6,123.282
3245.5,119.124
3246.4,106.6492
3247.3,103.132
3248.2,97.2802
3249.1,86.8682
3250,75.9686
3250.9,72.136
3251.8,60.2204
3252.7,47.0508
3253.5,34.964
3254.4,25.6604
3255.3,9.74396
3256.2,-6.74114
