250.34,-9.29396
252.57,-10.23692
254.8,0
257.03,-7.29536
259.26,-6.73928
261.48,-1.127442
263.71,4.80886
265.94,-8.69678
268.16,9.39288
270.39,0.57454
272.61,11.11426
274.84,-5.54778
277.06,2.12574
279.28,6.03812
281.51,4.01852
283.73,1.11282
285.95,1.91132
288.17,7.468162
290.39,-7.01794
292.61,6.23812
294.83,-5.198238
297.05,10.42434
299.27,-3.51414
301.48,12.15226
303.7,6.74468
305.91,10.93912
308.13,5.754514
310.35,6.97596
312.56,8.18662
314.77,9.88716
316.99,3.81972
319.2,3.79248
321.41,1.72976
323.62,4.9305
325.83,-0.1101988
328.04,-2.70648
330.25,-7.46398
332.46,-7.32648
334.67,-8.9529
336.88,-14.6197
339.08,-12.23454
341.29,-13.59508
343.5,-16.25494
345.7,-5.016522
347.91,-4.203112
350.11,4.074842
352.31,10.72586
354.52,6.46344
356.72,21.39032
358.92,18.91026
361.12,17.8152
363.32,9.63196
365.52,10.63814
367.72,15.50824
369.92,11.5148
372.12,12.9937
374.32,35.2014
376.51,83.1198
378.71,103.678
380.9,91.1826
383.1,50.4802
385.29,19.9214
387.49,12.52978
389.68,4.677744
391.87,-0.928374
394.07,3.552246
396.26,-3.089546
398.45,11.83658
400.64,14.77384
402.83,10.28612
405.02,15.7048
407.21,32.0878
409.39,58.4908
411.58,128.304
413.77,345.88
415.95,621.556
418.14,700
420.32,483.586
422.51,243.32
424.69,131.306
426.87,101.9866
429.06,100.997
431.24,84.884
433.42,70.2996
435.6,41.1616
437.78,24.2722
439.96,15.58032
442.14,-0.28455
444.31,11.85682
446.49,25.8322
448.67,39.035
450.84,43.0444
453.02,20.9229
455.19,10.20114
457.37,-1.42762
459.54,-0.41808
461.71,0.96547314
463.89,2.787978
466.06,-0.10274
468.23,2.78983024
470.4,-4.924
472.57,1.99682
474.74,2.16346
476.91,-3.82166
479.07,2.817792
481.24,8.121016
483.41,11.92316
485.57,9.017912
487.74,6.44366
489.9,13.55542
492.07,5.43398
494.23,-2.720812
496.4,-0.69244
498.56,-1.994546
500.72,-6.016788
502.88,2.88126
505.04,-1.566318
507.2,-3.4415502
509.36,-3.2485
511.52,1.82558
513.68,-3.222516
515.83,1.204474
517.99,5.359942
520.14,0.364336
522.3,1.634314
524.45,3.558268
526.61,1.03316
528.76,3.13296
530.91,2.13038
533.07,7.36602
535.22,8.13222
537.37,8.98196
539.52,13.44346
541.67,7.979458
543.82,5.60358
545.97,9.11754
548.11,1.91994
550.26,-0.2856
552.41,1.339262
554.55,-2.24068
556.7,-10.92362848
558.84,-1.96474
560.98,7.9698
563.13,3.65584
565.27,2.96676
567.41,-1.675564
569.55,8.38962
571.69,26.1188
573.83,72.6468
575.97,120.782
578.11,113.846
580.25,78.9126
582.39,41.0892
584.52,20.1982
586.66,11.87282
588.79,6.91536
590.93,11.700452
593.06,-0.09726
595.19,4.197876
597.33,6.27852
599.46,7.73372
601.59,-2.381814
603.72,1.4152
605.85,2.28928
607.98,-0.105627
610.11,11.67384
612.24,5.024722
614.36,8.03714
616.49,0.313534
618.62,4.55238
620.74,6.41234
622.87,0.134846
624.99,0.234356
627.11,-1.41804
629.24,-1.70377
631.36,-3.07872
633.48,1.0309
635.6,-3.5639106
637.72,-3.577758
639.84,1.9495
641.96,0.0150402
644.08,-0.74316
646.2,-0.0876199999999999
648.31,-4.59216
650.43,-9.19452
652.54,-7.6094
654.66,-4.35882
656.77,-2.067254
658.89,-10.494874
661,-2.233526
663.11,3.12694
665.22,6.3351
667.33,2.14962
669.44,8.89336
671.55,11.295252
673.66,20.411712
675.77,28.6934
677.88,33.9452
679.98,48.4634
682.09,54.505
684.2,71.6154
686.3,86.4206
688.4,91.7232
690.51,113.028
692.61,120.0512
694.71,125.012
696.81,137.46
698.92,143.904
701.02,156.554
703.11,160.11
705.21,172.756
707.31,178.424
709.41,186.462
711.51,181.212
713.6,172.59
715.7,159.122
717.79,138.884
719.89,128.134
721.98,112.762
724.07,97.999
726.16,82.0066
728.25,71.847
730.35,67.3616
732.44,59.432
734.52,62.4106
736.61,63.8492
738.7,78.6048
740.79,96.9478
742.87,134.054
744.96,173.122
747.05,215.348
749.13,249.046
751.21,244.71
753.3,216.074
755.38,166.36
757.46,120.946
759.54,93.1672
761.62,60.9198
763.7,40.7246
765.78,21.72114
767.86,16.20504
769.94,8.481766
772.01,4.978022
774.09,-0.751408
776.17,2.09214
778.24,2.24134
780.32,-1.34298
782.39,-1.55845
784.46,2.45868
786.53,-1.658056
788.61,-0.19821
790.68,-2.70802
792.75,-1.16944
794.82,-0.92353
796.89,-0.217119999999999
798.95,-2.989282
801.02,-5.06442
803.09,-7.88476
805.15,-7.21384
807.22,-6.86706
809.28,-2.8529474
811.35,-2.74336
813.41,-2.40906
815.47,0.184094
817.53,-8.76834
819.6,-8.58972
821.66,-4.32776
823.72,-5.9511
825.78,-9.7897
827.83,-7.44042
829.89,-7.37098
831.95,-0.6609248
834,-4.32556
836.06,1.00532
838.12,0.470404
840.17,-0.108264
842.22,3.92106
844.28,2.202948
846.33,6.563682
848.38,6.03074
850.43,1.88762
852.48,9.14162
854.53,6.61908
856.58,8.78834
858.63,13.5269
860.67,8.703072
862.72,11.9831
864.77,6.66758
866.81,4.19428
868.86,8.9441
870.9,-0.594646
872.94,1.76224
874.98,-0.485732
877.03,2.25246
879.07,3.6292
881.11,3.395374
883.15,3.08576
885.19,4.29615
887.22,1.593926
889.26,2.41052
891.3,3.15706
893.33,2.312114
895.37,-1.57256
897.4,0.85728
899.44,0
901.47,-0.87984
903.5,-4.93004
905.54,1.620376
907.57,2.91875
909.6,-0.796166
911.63,-0.448232
913.66,1.744556
915.68,3.41662
917.71,0.764935999999999
919.74,-4.09144
921.76,-0.84966
923.79,-5.83542
925.82,0.7767
927.84,2.228504
929.86,4.733165
931.89,2.34926
933.91,6.85544
935.93,2.37746
937.95,2.42968
939.97,4.480262
941.99,0.59616
944.01,-0.87454
946.02,-4.069
948.04,2.546252
950.06,-2.4557
952.07,4.32516
954.09,1.69134
956.1,0.14642
958.12,2.695066
960.13,2.89868
962.14,3.700202
964.15,3.76194
966.16,0.51986
968.17,-3.54402
970.18,0.34649
972.19,-1.38266
974.2,0.100694
976.2,1.410168
978.21,0.21028
980.22,2.148692
982.22,-0.553848
984.22,3.5986
986.23,4.560254
988.23,0.56546
990.23,1.265194
992.23,4.496
994.24,1.8955
996.23,1.132202
998.23,6.44568
1000.2,3.61506
1002.2,9.181506
1004.2,9.99238
1006.2,4.76158
1008.2,9.76138
1010.2,6.02732
1012.2,12.70284
1014.2,12.44116
1016.2,12.2184
1018.2,9.50832
1020.2,12.32968
1022.2,8.77446
1024.2,14.5938
1026.1,21.316
1028.1,22.8072
1030.1,21.9836
1032.1,25.3352
1034.1,28.0648
1036.1,28.7398
1038.1,24.2148
1040.1,31.59
1042,32.5594
1044,35.4968
1046,36.1192
1048,41.4112
1050,46.6052
1051.9,46.8562
1053.9,47.2252
1055.9,42.9748
1057.9,44.5576
1059.9,42.8024
1061.8,43.0466
1063.8,37.3852
1065.8,38.5254
1067.8,35.465
1069.7,33.7376
1071.7,31.3194
1073.7,31.0964
1075.6,26.9794
1077.6,22.85158
1079.6,20.4454
1081.5,13.509458
1083.5,16.2352
1085.5,12.04332
1087.5,11.27428
1089.4,5.09754
1091.4,7.34842
1093.3,5.427342
1095.3,3.19122
1097.3,2.05442
1099.2,6.07316
1101.2,5.92673
1103.2,5.04398
1105.1,3.580478
1107.1,3.1164
1109,0.50122
1111,0.1703
1113,-0.79774
1114.9,2.13774
1116.9,-0.29976
1118.8,-4.8879
1120.8,5.4593
1122.7,2.149394
1124.7,9.41825
1126.6,4.40012
1128.6,2.790644
1130.5,6.76374
1132.5,7.46004
1134.4,1.298514
1136.4,8.633496
1138.3,8.59202
1140.3,13.16672
1142.2,12.06426
1144.2,19.9956
1146.1,17.51756
1148.1,17.00094
1150,20.92052
1151.9,20.2326
1153.9,17.45074
1155.8,21.2894
1157.8,23.157
1159.7,26.046
1161.6,30.1344
1163.6,36.1274
1165.5,40.4248
1167.5,42.9028
1169.4,51.4504
1171.3,57.7414
1173.3,58.1064
1175.2,71.1512
1177.1,68.6344
1179.1,78.858
1181,84.7146
1182.9,93.874
1184.9,99.4706
1186.8,113.022
1188.7,124.716
1190.6,132.404
1192.6,147.394
1194.5,157.536
1196.4,169.6
1198.4,177.786
1200.3,187.282
1202.2,201.968
1204.1,206.426
1206,219.284
1208,222.554
1209.9,235.26
1211.8,241.71
1213.7,247.408
1215.6,249.9
1217.6,250.232
1219.5,251.674
1221.4,247.624
1223.3,233.946
1225.2,232.306
1227.1,226.272
1229.1,219.84
1231,208.836
1232.9,204.4
1234.8,200.82
1236.7,190.356
1238.6,176.6
1240.5,166.268
1242.4,156.968
1244.3,144.894
1246.2,136.71
1248.1,125.682
1250.1,121.68
1252,112.148
1253.9,108.9858
1255.8,100.597
1257.7,98.1044
1259.6,92.4062
1261.5,88.0816
1263.4,83.4038
1265.3,82.7602
1267.2,82.303
1269.1,76.7408
1271,74.9152
1272.9,68.9742
1274.8,73.0674
1276.6,68.9588
1278.5,68.3606
1280.4,63.6376
1282.3,61.1768
1284.2,54.3206
1286.1,51.5636
1288,49.1282
1289.9,47.4804
1291.8,40.8174
1293.7,40.7322
1295.6,40.241
1297.4,41.8168
1299.3,37.0546
1301.2,35.7002
1303.1,41.123
1305,37.4722
1306.9,39.0368
1308.7,37.8156
1310.6,34.7436
1312.5,30.2368
1314.4,32.7822
1316.3,33.001
1318.1,32.3042
1320,29.9238
1321.9,32.7844
1323.8,35.9984
1325.7,37.9912
1327.5,39.9508
1329.4,36.83
1331.3,40.6602
1333.1,40.0138
1335,42.9304
1336.9,45.5914
1338.8,50.3404
1340.6,51.8632
1342.5,59.9462
1344.4,67.3002
1346.2,72.3216
1348.1,84.184
1350,97.0368
1351.8,97.2026
1353.7,103.858
1355.6,97.893
1357.4,96.4316
1359.3,92.0196
1361.1,97.5664
1363,94.4366
1364.9,102.6886
1366.7,111.238
1368.6,123.828
1370.4,137.164
1372.3,153.272
1374.2,172.528
1376,193.5
1377.9,219.5
1379.7,233.188
1381.6,252.64
1383.4,259.76
1385.3,261.744
1387.1,256.562
1389,251.358
1390.8,253.19
1392.7,266.894
1394.5,284.344
1396.4,314.148
1398.2,335.012
1400.1,350.024
1401.9,339.062
1403.8,313.532
1405.6,277.98
1407.4,234.796
1409.3,190.93
1411.1,161.71
1413,134.244
1414.8,114.558
1416.6,100.7832
1418.5,80.651
1420.3,70.9492
1422.2,61.514
1424,53.2682
1425.8,47.676
1427.7,41.3706
1429.5,31.061
1431.3,31.2258
1433.2,29.6314
1435,17.74308
1436.8,20.1426
1438.7,16.23038
1440.5,17.0866
1442.3,6.19586
1444.1,10.8859
1446,4.8369996
1447.8,4.202606
1449.6,1.84742
1451.4,1.10154
1453.3,0.0786719999999998
1455.1,1.969442
1456.9,-1.093966
1458.7,-2.093022
1460.6,0.654572
1462.4,-2.83602
1464.2,-4.92484
1466,-5.97396
1467.8,-9.47498
1469.6,-10.63584
1471.5,-5.4107
1473.3,-6.19204
1475.1,-8.40686
1476.9,-10.8603
1478.7,-10.25188
1480.5,-9.10368
1482.4,-4.30626
1484.2,-7.00864
1486,-9.65328
1487.8,-7.13084
1489.6,-9.04284
1491.4,-12.60416
1493.2,-9.70332
1495,-10.831
1496.8,-10.87582
1498.6,-9.17478
1500.4,-11.75404
1502.2,-5.180964
1504,-5.79414
1505.8,-5.28506332
1507.6,-4.7966886
1509.4,-6.17664
1511.2,-7.99304
1513,-8.85938
1514.8,-6.438972
1516.6,-3.36624
1518.4,-5.56484
1520.2,-6.87326
1522,-2.97616
1523.8,-4.75404
1525.6,-5.94312
1527.4,-4.94576
1529.2,-3.22262
1531,0.47548
1532.8,-1.92384
1534.6,-0.153034
1536.4,-0.0380979999999999
1538.2,0.0267579999999999
1539.9,1.444382
1541.7,5.71512
1543.5,10.67498
1545.3,4.11254
1547.1,8.36552
1548.9,12.05712
1550.7,22.487
1552.4,34.7186
1554.2,37.4222
1556,40.3698
1557.8,38.357
1559.6,34.1664
1561.3,37.511
1563.1,40.4978
1564.9,45.4868
1566.7,50.3012
1568.4,53.603
1570.2,54.1328
1572,61.033
1573.8,68.3472
1575.5,71.1882
1577.3,80.368
1579.1,84.8716
1580.9,96.4774
1582.6,105.082
1584.4,108.9136
1586.2,113.246
1587.9,121.272
1589.7,126.408
1591.5,136.036
1593.2,144.66
1595,151.376
1596.8,162.498
1598.5,172.408
1600.3,180.13
1602,189.762
1603.8,196.356
1605.6,209.372
1607.3,222.23
1609.1,230.836
1610.8,244.596
1612.6,249.188
1614.4,261.222
1616.1,270.052
1617.9,273.256
1619.6,285.694
1621.4,288.938
1623.1,303.034
1624.9,309.08
1626.6,317.272
1628.4,324.872
1630.1,335.488
1631.9,341.352
1633.6,339.192
1635.4,352.326
1637.1,352.788
1638.9,359.272
1640.6,354.982
1642.4,358.778
1644.1,362.434
1645.8,362.28
1647.6,367.892
1649.3,369.912
1651.1,362.154
1652.8,364.594
1654.6,363.45
1656.3,360.192
1658,355.574
1659.8,361.16
1661.5,356.65
1663.2,357.5
1665,358.81
1666.7,359.722
1668.4,354.448
1670.2,361.87
1671.9,355.44
1673.6,361.602
1675.4,357.196
1677.1,359.404
1678.8,357.708
1680.5,364.192
1682.3,365.736
1684,371.608
1685.7,380.198
1687.5,387.664
1689.2,393.826
1690.9,407.248
1692.6,414.952
1694.3,430.146
1696.1,439.322
1697.8,451.48
1699.5,462.596
1701.2,475.88
1702.9,491.162
1704.7,494.686
1706.4,512.612
1708.1,517.102
1709.8,527.5
1711.5,537.934
1713.2,541.24
1714.9,542.548
1716.7,540.444
1718.4,531.09
1720.1,523.604
1721.8,516.364
1723.5,503.82
1725.2,494.658
1726.9,483.174
1728.6,465.714
1730.3,449.288
1732,436.246
1733.7,414.626
1735.4,394.212
1737.1,373.288
1738.8,345.238
1740.6,317.708
1742.3,289.622
1744,259.13
1745.7,233.97
1747.3,210.652
1749,180.584
1750.7,164.226
1752.4,141.888
1754.1,129.188
1755.8,110.446
1757.5,95.1636
1759.2,81.4786
1760.9,75.3344
1762.6,62.0796
1764.3,52.1132
1766,45.5926
1767.7,37.9084
1769.4,35.3334
1771.1,30.9788
1772.7,24.8008
1774.4,23.319
1776.1,17.9506
1777.8,15.24416
1779.5,13.0134
1781.2,8.7206
1782.8,13.0962
1784.5,8.08574
1786.2,6.44988
1787.9,4.84322
1789.6,4.48622
1791.2,1.82415
1792.9,-0.423906
1794.6,1.691144
1796.3,-2.23357
1798,-2.62478
1799.6,-4.121672
1801.3,-4.06831
1803,-6.17778
1804.7,-6.95137
1806.3,-5.32108
1808,-1.432656
1809.7,-4.5463
1811.3,-5.4912
1813,-1.57236
1814.7,-3.97734
1816.3,-7.41898
1818,-4.171052
1819.7,-10.23
1821.3,-4.63424
1823,-3.687514
1824.7,-6.9546
1826.3,-3.480149
1828,-2.3126
1829.7,-0.952322
1831.3,-5.45134
1833,0.92092
1834.6,-0.248804
1836.3,-3.78594
1838,-6.016284
1839.6,-0.141872
1841.3,-7.2126
1842.9,-2.176184
1844.6,-0.157498
1846.2,-3.25106
1847.9,-0.43202
1849.5,0.79771
1851.2,-1.130576
1852.8,2.51522
1854.5,-2.1311
1856.1,-0.21852
1857.8,0.113154
1859.4,0.24356
1861.1,2.38794
1862.7,-0.63146
1864.4,0.6100354
1866,1.22718
1867.7,1.653158
1869.3,1.60796
1871,1.009104
1872.6,3.391864
1874.2,2.279406
1875.9,-1.85052
1877.5,3.686278
1879.2,0
1880.8,-0.141114
1882.4,-6.2185
1884.1,-0.326732
1885.7,2.59701
1887.3,0.0882
1889,-2.218088
1890.6,-1.95592
1892.2,-1.294634
1893.9,2.76164
1895.5,-6.06294
1897.1,-0.889448
1898.8,-2.94424
1900.4,-2.3708352
1902,-1.32052
1903.7,-3.23968
1905.3,1.37892
1906.9,-2.7836946
1908.5,1.12538
1910.2,-0.670168
1911.8,-1.66232
1913.4,-2.514646
1915,-2.622926
1916.7,-5.11475
1918.3,-0.242718
1919.9,-1.132254
1921.5,0.48646
1923.1,-1.0666996
1924.8,-0.736396
1926.4,1.72586
1928,-2.430866
1929.6,1.23182
1931.2,-1.650118
1932.8,-0.211192
1934.4,2.02972
1936.1,3.8712
1937.7,2.22
1939.3,0.88926
1940.9,-2.407596
1942.5,-1.466488
1944.1,-2.953884
1945.7,-1.673396
1947.3,-1.24364
1948.9,4.2489
1950.5,-0.97592
1952.1,0.044422
1953.8,1.92609
1955.4,2.07318
1957,2.52356
1958.6,-1.529448
1960.2,-2.927788
1961.8,3.348404
1963.4,-2.51342
1965,4.000434
1966.6,1.46706
1968.2,3.44834
1969.8,2.34944
1971.4,0.31318
1973,1.5505
1974.5,-0.147088
1976.1,0.9773724
1977.7,-2.98358
1979.3,-4.647238
1980.9,-2.93846
1982.5,-0.62238
1984.1,0.8292
1985.7,5.30768
1987.3,2.04544
1988.9,3.80676
1990.5,3.2504
1992,0.60252
1993.6,3.19332
1995.2,1.09626
1996.8,2.755718
1998.4,3.377382
2000,4.512456
2001.6,-0.57913
2003.1,0.43033
2004.7,3.474606
2006.3,3.76452
2007.9,0.81032
2009.5,0.468474
2011,3.15838
2012.6,1.570218
2014.2,1.49272
2015.8,1.66318
2017.3,0.25836
2018.9,-0.6690834
2020.5,3.552248
2022.1,2.77162
2023.6,3.0148624
2025.2,5.07036
2026.8,3.6424
2028.3,1.1016168
2029.9,4.47182
2031.5,2.67358
2033,2.667884
2034.6,2.381498
2036.2,-0.162546
2037.7,5.28078
2039.3,3.384494
2040.9,1.703786
2042.4,2.727772
2044,1.754526
2045.6,-1.602582
2047.1,2.018242
2048.7,4.093556
2050.2,-3.847402
2051.8,3.25452
2053.4,-0.382268
2054.9,1.978182
2056.5,1.56358
2058,-1.109238
2059.6,-0.3121012
2061.1,2.62922
2062.7,0.71654
2064.2,-1.3382
2065.8,-2.973822
2067.3,3.62865
2068.9,0.657074
2070.4,-2.1081
2072,-3.18384
2073.5,2.38778
2075.1,0.259648
2076.6,1.4231
2078.2,-1.16392
2079.7,-2.24228
2081.3,1.455604
2082.8,5.170746
2084.4,2.772148
2085.9,1.506074
2087.4,3.82878
2089,2.159212
2090.5,6.114146
2092.1,3.012316
2093.6,-0.24092
2095.1,1.4727
2096.7,3.18656
2098.2,4.70048
2099.7,5.276884
2101.3,5.435006
2102.8,6.36832
2104.3,5.46168
2105.9,4.6877
2107.4,10.40358
2108.9,4.97565
2110.5,-1.11818
2112,6.4388
2113.5,6.392784
2115.1,5.41646
2116.6,8.14902
2118.1,7.95514
2119.6,7.106
2121.2,6.6367
2122.7,6.8479
2124.2,7.02808
2125.7,10.9064
2127.3,8.06344
2128.8,9.58814
2130.3,14.7824
2131.8,18.8494
2133.3,33.1072
2134.9,50.7998
2136.4,68.5684
2137.9,73.8338
2139.4,65.5276
2140.9,47.142
2142.4,29.9368
2144,20.8616
2145.5,12.64618
2147,13.76106
2148.5,10.89036
2150,8.31626
2151.5,6.25727
2153,5.48682
2154.5,5.298238
2156,1.43434
2157.6,4.52248
2159.1,5.748278
2160.6,4.82458
2162.1,1.28762034
2163.6,-0.841722
2165.1,0.703914
2166.6,3.81326
2168.1,2.40912
2169.6,-1.7222
2171.1,3.06946
2172.6,4.297276
2174.1,2.8215
2175.6,4.30338
2177.1,4.76968
2178.6,1.591894
2180.1,2.89256
2181.6,2.1845
2183.1,-2.9114
2184.6,4.1134
2186.1,3.02782
2187.5,0.701788
2189,-1.18219
2190.5,2.43886
2192,1.332946
2193.5,0.364074
2195,0.381826
2196.5,-3.22648
2198,0.667496
2199.5,0.52136
2201,-0.51976
2202.4,-0.497222
2203.9,-0.28438
2205.4,-0.29436
2206.9,-5.1692
2208.4,2.609162
2209.9,0.114845
2211.3,0.9213776
2212.8,-1.10444
2214.3,-3.125516
2215.8,-0.11066
2217.3,-3.8233864
2218.7,-1.0945
2220.2,-0.84066
2221.7,-1.174
2223.2,-1.070618
2224.6,2.910956
2226.1,-3.392962
2227.6,-0.5757222
2229.1,-2.719656
2230.5,-2.52595
2232,-0.0968760000000001
2233.5,0.3056
2234.9,-4.23722
2236.4,-1.30208
2237.9,-1.872206
2239.3,-1.065934
2240.8,-0.409916
2242.3,0.166158
2243.7,-1.37872
2245.2,-1.62602
2246.7,2.40326
2248.1,-2.33498
2249.6,-4.2923812
2251.1,0.131916
2252.5,-1.581272
2254,1.94742
2255.4,-1.215238
2256.9,-4.08124
2258.3,-3.195156
2259.8,-2.18614
2261.3,-1.48756
2262.7,0.921252
2264.2,1.16544
2265.6,-1.65616
2267.1,-0.679848
2268.5,0.16766
2270,1.05186
2271.4,-2.66634
2272.9,0.459596
2274.3,0
2275.8,3.605272
2277.2,4.30692
2278.7,-3.493792
2280.1,-0.0962800000000001
2281.6,0.271932
2283,2.873542
2284.5,-4.16261
2285.9,2.35336
2287.4,-2.83016
2288.8,1.4716648
2290.2,0.35004
2291.7,0.791612
2293.1,-5.44442
2294.6,-2.490794
2296,1.41504
2297.4,1.51236
2298.9,3.155894
2300.3,-2.040378
2301.7,-1.46074
2303.2,-0.83629
2304.6,1.47199
2306,0.311664
2307.5,1.68603
2308.9,-1.796568
2310.3,-0.99854
2311.8,0.103606
2313.2,0.37716
2314.6,0.270768
2316.1,3.683534
2317.5,-1.1353758
2318.9,4.439094
2320.3,3.763128
2321.8,4.597532
2323.2,7.70624
2324.6,10.64272
2326,17.6636
2327.5,21.3024
2328.9,28.701
2330.3,25.3776
2331.7,22.5686
2333.2,15.6196
2334.6,9.94102
2336,7.712
2337.4,5.381152
2338.8,4.32238
2340.2,2.154486
2341.7,0.3078
2343.1,3.5812
2344.5,1.53692
2345.9,3.55896
2347.3,-0.49468
2348.7,4.58672
2350.1,0.88046
2351.6,0.4015962
2353,1.66858
2354.4,0.52378
2355.8,-0.0502799999999997
2357.2,-1.059526
2358.6,-2.161882
2360,4.6796
2361.4,3.612078
2362.8,0.43302
2364.2,5.06046
2365.6,-1.709966
2367,7.24086
2368.4,3.1385294
2369.8,4.064972
2371.2,2.03124
2372.6,1.88144
2374,1.09284
2375.4,3.85242
2376.8,3.27798
2378.2,0.85774
2379.6,4.156254
2381,4.82524
2382.4,4.618042
2383.8,5.759748
2385.2,1.5526
2386.6,3.21234
2388,2.96832
2389.4,4.14836
2390.8,2.92404774
2392.1,-0.31844
2393.5,0.14082
2394.9,4.48844
2396.3,0.28086
2397.7,3.637764
2399.1,2.3003
2400.5,1.66674
2401.9,2.182194
2403.2,1.47332
2404.6,3.5034
2406,0.954312
2407.4,2.94976
2408.8,2.93552
2410.2,4.25114
2411.5,2.01914
2412.9,0.450184
2414.3,-0.0991600000000002
2415.7,0
2417,2.24932
2418.4,1.791142
2419.8,1.26968
2421.2,-0.28896
2422.5,0.29108
2423.9,3.37786
2425.3,1.229
2426.7,0.8671
2428,0.48412
2429.4,2.038696
2430.8,1.803946
2432.1,4.473337
2433.5,4.427856
2434.9,2.85018
2436.2,0.882198
2437.6,-2.39528
2439,-0.61372
2440.3,1.9459
2441.7,-1.35234
2443.1,2.30346
2444.4,0.70134
2445.8,-0.1233
2447.2,0.842636
2448.5,2.539936
2449.9,-0.0499
2451.2,-1.377788
2452.6,1.76987
2454,0.929488
2455.3,-1.25362
2456.7,-0.349794
2458,1.09908
2459.4,0.87958
2460.7,1.87878
2462.1,-0.203098
2463.4,0.36334
2464.8,-0.510032
2466.1,-0.70486
2467.5,-0.41932
2468.8,-5.56684
2470.2,-2.61078
2471.5,-0.10564
2472.9,-0.4196
2474.2,-2.89424
2475.6,-0.87884
2476.9,1.7642
2478.3,0.99808
2479.6,0.178684
2481,-0.62124
2482.3,-0.77408
2483.6,-0.382064
2485,-0.484206
2486.3,-3.3126
2487.7,0.0462200000000001
2489,-2.16427
2490.3,-2.089692
2491.7,-2.20074
2493,-2.00654
2494.4,0.699058
2495.7,-0.2574318
2497,-0.9782156
2498.4,-3.035078
2499.7,-1.436908
2501,-3.39896
2502.4,-3.066352
2503.7,0.941618
2505,-0.1368608
2506.4,0.1654
2507.7,-2.244518
2509,0.0196619999999999
2510.3,1.3794
2511.7,1.867138
2513,-2.860506
2514.3,0.21398
2515.6,-1.81244
2517,0.1575
2518.3,-3.138346
2519.6,1.884746
2520.9,0
2522.3,0.71744
2523.6,-0.28964
2524.9,0.54696
2526.2,1.32602
2527.5,-1.528028
2528.9,1.979
2530.2,-0.170766
2531.5,1.516764
2532.8,2.269624
2534.1,0.298594
2535.4,-0.37576
2536.8,0.70146
2538.1,0.946996
2539.4,4.28104
2540.7,1.38412
2542,3.54606
2543.3,-0.133338
2544.6,1.44516
2545.9,0.261058
2547.2,-1.18603
2548.6,0.781908
2549.9,4.43932
2551.2,0.47996
2552.5,2.322086
2553.8,3.96036
2555.1,2.23106
2556.4,5.67314
2557.7,2.10342
2559,3.330044
2560.3,5.3278
2561.6,3.03698
2562.9,5.0098
2564.2,4.36206
2565.5,2.48462
2566.8,6.6065
2568.1,8.92143
2569.4,5.37378
2570.7,4.2506
2572,6.83536
2573.3,4.47156
2574.6,5.14232
2575.9,5.07712
2577.1,4.202368
2578.4,5.978002
2579.7,4.402434
2581,3.385196
2582.3,4.935832
2583.6,5.647458
2584.9,8.15778
2586.2,5.3648
2587.5,3.39574
2588.7,4.6251
2590,4.03314
2591.3,6.84782
2592.6,1.77706
2593.9,3.2171
2595.2,3.23354
2596.4,8.2146
2597.7,7.4604
2599,5.074846
2600.3,5.004512
2601.6,4.8872208
2602.8,5.85258
2604.1,6.7253
2605.4,4.30762
2606.7,3.809174
2608,3.165468
2609.2,2.32112
2610.5,7.11774
2611.8,3.23516
2613,1.65444
2614.3,4.9976
2615.6,4.70238
2616.9,5.706646
2618.1,3.21871
2619.4,6.1306
2620.7,-0.026766
2621.9,4.2298
2623.2,4.567168
2624.5,0.39912
2625.7,2.66968
2627,2.12676
2628.3,3.771352
2629.5,0
2630.8,2.762364
2632.1,2.565182
2633.3,6.5364
2634.6,5.819734
2635.8,0.23302
2637.1,-3.5564
2638.4,1.802132
2639.6,1.89207
2640.9,-0.317468
2642.1,0.27696
2643.4,-1.461376
2644.6,3.437842
2645.9,-1.53301
2647.2,-1.16102
2648.4,-0.742116
2649.7,0.308736
2650.9,-4.0029
2652.2,-1.684368
2653.4,-2.20202
2654.7,0.873282
2655.9,-2.811404
2657.2,-0.52702
2658.4,-2.58138
2659.7,-2.73794
2660.9,-1.07274
2662.2,1.81844
2663.4,-1.58368
2664.6,-1.452634
2665.9,1.21536
2667.1,-1.5976
2668.4,-0.787946
2669.6,-2.040056
2670.9,-2.372034
2672.1,-1.3502
2673.3,0.4836
2674.6,-0.7930976
2675.8,-4.622624
2677.1,-1.55104
2678.3,-4.59978
2679.5,-2.175714
2680.8,-3.82165
2682,-1.90198
2683.2,-3.2573
2684.5,-2.92081
2685.7,-4.55094
2686.9,-3.038384
2688.2,-3.9644196
2689.4,-6.67853
2690.6,1.64304
2691.9,-5.588
2693.1,-3.09294
2694.3,-2.94956
2695.5,-5.85644
2696.8,-2.92872
2698,-4.79866
2699.2,-4.75066
2700.4,-3.5538
2701.7,-3.5256108
2702.9,-3.1
2704.1,-2.792202
2705.3,-4.442124
2706.6,-4.16478
2707.8,-3.11532
2709,-2.98768
2710.2,-3.263248
2711.4,-3.81232
2712.6,-2.804544
2713.9,-5.77688
2715.1,-2.06445
2716.3,-2.08572
2717.5,-4.32816
2718.7,-2.35012
2719.9,-1.43308
2721.2,-1.17034
2722.4,-4.350156
2723.6,-1.316756
2724.8,-0.273408
2726,0
2727.2,-0.30348
2728.4,-2.977822
2729.6,-1.68502
2730.8,0.45986
2732,-1.82068
2733.3,-1.414766
2734.5,-2.44144
2735.7,-1.929744
2736.9,-2.78496
2738.1,-1.5914
2739.3,-0.932286
2740.5,0.0353
2741.7,-2.52676
2742.9,-2.53206
2744.1,-0.72096
2745.3,-0.793789
2746.5,-0.275566
2747.7,-0.18659
2748.9,0.249797
2750.1,-0.59898
2751.3,-2.09168
2752.5,-0.449298
2753.7,-0.44601
2754.9,1.4008
2756,-0.69954
2757.2,2.68598
2758.4,-2.64306
2759.6,2.3534
2760.8,3.09058
2762,1.72964
2763.2,1.27274
2764.4,1.17266
2765.6,3.63814
2766.8,5.18508
2767.9,2.46696
2769.1,0.65318
2770.3,1.74374
2771.5,3.95346
2772.7,2.04006
2773.9,2.43222
2775.1,5.316864
2776.2,3.421518
2777.4,1.25761
2778.6,3.081818
2779.8,2.299226
2781,1.858918
2782.1,1.26764
2783.3,0.91308
2784.5,3.99488
2785.7,0.757294
2786.8,2.75226
2788,3.73928
2789.2,0.290894
2790.4,-1.468778
2791.5,0.54722
2792.7,-1.806944
2793.9,-0.206426
2795.1,-0.080782
2796.2,-2.429636
2797.4,0.0241199999999999
2798.6,-1.591914
2799.7,-1.02612
2800.9,-2.030218
2802.1,0.14859
2803.2,-1.33302
2804.4,-1.9022634
2805.6,-0.368914
2806.7,-4.545756
2807.9,-5.192736
2809.1,-1.8278
2810.2,1.2163
2811.4,-0.70991
2812.6,-2.00498
2813.7,-3.33256
2814.9,0.273684
2816,0.0651620000000001
2817.2,-2.021436
2818.4,0
2819.5,-1.841642
2820.7,-0.040246
2821.8,-0.687086
2823,-0.332858
2824.1,-4.49824
2825.3,-1.05776
2826.4,-1.068478
2827.6,1.738718
2828.7,-3.37441
2829.9,-2.883716
2831,0.863446
2832.2,0.941366
2833.3,-1.98988
2834.5,-2.6863
2835.6,-2.89323
2836.8,-4.173402
2837.9,-3.434848842
2839.1,-1.57962
2840.2,-4.82998
2841.4,-3.898858
2842.5,-0.37418
2843.7,-1.96132
2844.8,-3.5606
2845.9,-5.608738
2847.1,-4.851046
2848.2,-0.9662
2849.4,-3.314
2850.5,-2.705424
2851.7,-2.25388
2852.8,-5.06812
2853.9,-3.98436
2855.1,-3.00216
2856.2,-4.38522
2857.3,-3.4634
2858.5,-2.827394
2859.6,-3.421996
2860.7,-2.554558
2861.9,-2.3485212
2863,-0.0355600000000001
2864.1,-5.154248
2865.3,-6.90678
2866.4,-7.462
2867.5,-5.10318
2868.7,-3.916402
2869.8,-3.216836
2870.9,-1.928294
2872,-6.17702
2873.2,-1.150128
2874.3,-2.6431018
2875.4,-3.77022
2876.5,0.671892
2877.7,-2.153248
2878.8,-1.004204
2879.9,0.67975
2881,-0.639708
2882.2,-1.7600506
2883.3,-1.691966
2884.4,2.3695
2885.5,6.52478
2886.6,1.0140246
2887.8,0.3581478
2888.9,5.26044
2890,6.06018
2891.1,8.409399
2892.2,3.206143
2893.3,9.76832
2894.4,9.04236
2895.6,12.26548
2896.7,10.23826
2897.8,12.4496
2898.9,14.04092
2900,16.6002
2901.1,16.68768
2902.2,17.0022
2903.3,20.3972
2904.4,25.8776
2905.6,26.9762
2906.7,25.3016
2907.8,25.7788
2908.9,30.7902
2910,33.6184
2911.1,37.0372
2912.2,36.3282
2913.3,40.96
2914.4,39.8568
2915.5,45.9156
2916.6,45.6202
2917.7,50.8824
2918.8,52.5152
2919.9,54.2152
2921,60.717
2922.1,56.688
2923.2,61.0822
2924.3,62.9812
2925.4,65.8482
2926.5,71.0252
2927.6,71.5884
2928.7,71.7406
2929.8,78.6124
2930.8,78.4416
2931.9,80.9912
2933,84.985
2934.1,84.5622
2935.2,87.0962
2936.3,88.4292
2937.4,90.6956
2938.5,91.2116
2939.6,92.4478
2940.6,91.128
2941.7,91.8316
2942.8,91.2194
2943.9,94.9408
2945,93.2954
2946.1,93.3426
2947.2,96.7986
2948.2,92.1684
2949.3,92.6658
2950.4,92.5784
2951.5,89.37
2952.6,86.7692
2953.6,84.1318
2954.7,83.1628
2955.8,77.8972
2956.9,74.5434
2957.9,73.91
2959,67.288
2960.1,68.9966
2961.2,60.4526
2962.2,59.887
2963.3,59.158
2964.4,52.2252
2965.5,51.2842
2966.5,50.61
2967.6,44.3602
2968.7,40.6382
2969.7,38.0646
2970.8,38.5154
2971.9,34.5102
2973,30.5822
2974,31.5474
2975.1,30.3104
2976.2,28.9598
2977.2,30.913
2978.3,26.5504
2979.3,27.778
2980.4,28.571
2981.5,22.6366
2982.5,22.8054
2983.6,22.3756
2984.7,21.3218
2985.7,20.8312
2986.8,19.2996
2987.8,19.0188
2988.9,17.43626
2989.9,20.3042
2991,25.1708
2992.1,21.2414
2993.1,24.036
2994.2,22.49
2995.2,20.6772
2996.3,23.7794
2997.3,21.194
2998.4,22.9634
2999.4,25.8036
3000.5,23.384
3001.5,21.2504
3002.6,23.4758
3003.6,24.4236
3004.7,26.533
3005.7,24.0584
3006.8,22.2752
3007.8,28.06
3008.9,26.2608
3009.9,29.0806
3011,29.891
3012,29.696
3013,27.591
3014.1,29.1534
3015.1,29.9756
3016.2,32.583
3017.2,35.8796
3018.2,34.27
3019.3,34.0402
3020.3,35.2976
3021.4,38.826
3022.4,32.699
3023.4,36.2884
3024.5,38.6528
3025.5,38.1722
3026.5,43.0876
3027.6,41.418
3028.6,43.79
3029.6,45.8638
3030.7,46.3922
3031.7,48.4956
3032.7,46.9524
3033.8,49.1116
3034.8,49.2078
3035.8,49.6444
3036.9,51.9724
3037.9,52.1122
3038.9,57.459
3039.9,53.7092
3041,59.1748
3042,58.1168
3043,59.1142
3044,60.7474
3045.1,62.8514
3046.1,62.0068
3047.1,61.8172
3048.1,68.1184
3049.2,65.4892
3050.2,69.0922
3051.2,69.5904
3052.2,69.7366
3053.2,70.5538
3054.3,72.5128
3055.3,75.7068
3056.3,71.7662
3057.3,78.033
3058.3,78.0152
3059.3,76.5216
3060.3,84.4048
3061.4,84.104
3062.4,87.0274
3063.4,86.303
3064.4,84.1272
3065.4,88.0024
3066.4,89.515
3067.4,90.4126
3068.4,89.9492
3069.5,94.4966
3070.5,94.245
3071.5,95.2954
3072.5,97.9852
3073.5,96.8742
3074.5,102.6308
3075.5,105.588
3076.5,101.5146
3077.5,105.024
3078.5,108.29
3079.5,109.1916
3080.5,110.526
3081.5,113.292
3082.5,115.324
3083.5,115.12
3084.5,117.262
3085.5,122.864
3086.5,115.512
3087.5,127.99
3088.5,120.3
3089.5,124.364
3090.5,128.43
3091.5,129.694
3092.5,135.288
3093.5,132.94
3094.5,136.478
3095.5,137.65
3096.4,138.526
3097.4,143.106
3098.4,142.546
3099.4,144.272
3100.4,150.926
3101.4,149.194
3102.4,150.646
3103.4,154.562
3104.4,151.946
3105.3,157.882
3106.3,162.048
3107.3,159.968
3108.3,160.97
3109.3,164.966
3110.3,169.754
3111.3,168.36
3112.2,170.836
3113.2,172.998
3114.2,177.788
3115.2,174.776
3116.2,175.938
3117.1,182.572
3118.1,183.962
3119.1,185.46
3120.1,187.996
3121,187.824
3122,190.706
3123,192.216
3124,196.426
3124.9,196.34
3125.9,198.468
3126.9,201.814
3127.9,206.186
3128.8,207.686
3129.8,208.462
3130.8,206.476
3131.7,212.934
3132.7,214.868
3133.7,212.508
3134.7,213.988
3135.6,215.238
3136.6,220.476
3137.6,219.43
3138.5,221.228
3139.5,223.372
3140.4,225.038
3141.4,229.318
3142.4,226.25
3143.3,228.112
3144.3,232.564
3145.3,230.892
3146.2,236.138
3147.2,233.56
3148.1,241.068
3149.1,238.644
3150.1,242.536
3151,244.002
3152,247.2
3152.9,250.092
3153.9,248.964
3154.8,245.156
3155.8,251.874
3156.7,246.728
3157.7,252.174
3158.6,253.698
3159.6,259.604
3160.6,259.166
3161.5,259.754
3162.5,259.368
3163.4,256.458
3164.4,259.3
3165.3,253.806
3166.2,262.174
3167.2,262.936
3168.1,263.624
3169.1,261.25
3170,264.196
3171,267.186
3171.9,265.248
3172.9,266.714
3173.8,266.068
3174.7,268.862
3175.7,264.238
3176.6,265.162
3177.6,265.868
3178.5,268.83
3179.5,264.166
3180.4,264.49
3181.3,264.242
3182.3,266.632
3183.2,267.612
3184.1,270.094
3185.1,273.086
3186,272.336
3186.9,270.49
3187.9,271.788
3188.8,275.106
3189.7,268.276
3190.7,265.63
3191.6,266.632
3192.5,272.068
3193.5,270.138
3194.4,271.3
3195.3,275.314
3196.3,269.364
3197.2,270.704
3198.1,274.272
3199,266.634
3200,267.59
3200.9,262.246
3201.8,269.958
3202.7,270.492
3203.7,264.474
3204.6,262.566
3205.5,259.308
3206.4,265.226
3207.3,258.92
3208.3,260.624
3209.2,254.296
3210.1,250.672
3211,251.154
3211.9,252.538
3212.9,250.414
3213.8,249.182
3214.7,241.236
3215.6,243.058
3216.5,244.26
3217.4,240.622
3218.4,236.864
3219.3,234.896
3220.2,232.938
3221.1,227.588
3222,228.248
3222.9,226.962
3223.8,222.242
3224.7,223.444
3225.6,216.5
3226.6,216.138
3227.5,217.752
3228.4,214.874
3229.3,208.154
3230.2,207.088
3231.1,202.188
3232,197.046
3232.9,195.428
3233.8,197.966
3234.7,186.794
3235.6,183.332
3236.5,179.918
3237.4,174.48
3238.3,175.53
3239.2,168.192
3240.1,162.32
3241,160.724
3241.9,153.096
3242.8,153.116
3243.7,145.832
3244.6,140.048
3245.5,137.338
3246.4,126.92
3247.3,122.418
3248.2,112.61
3249.1,105.326
3250,91.9788
3250.9,85.1608
3251.8,69.9948
3252.7,56.0466
3253.5,46.9248
3254.4,28.2168
3255.3,16.5184
3256.2,-11.42752
