250.34,2.10774
252.57,-0.0910200000000003
254.8,0
257.03,-5.40172
259.26,0.78268
261.48,2.90374
263.71,2.779046
265.94,-0.09358
268.16,8.01601
270.39,2.867158
272.61,6.5478
274.84,3.177808
277.06,-1.569224
279.28,-0.334302
281.51,-0.79102
283.73,5.28316
285.95,1.40298
288.17,3.20288
290.39,1.87304
292.61,1.025316
294.83,-1.274444
297.05,-0.94078
299.27,0.86765
301.48,6.344508
303.7,7.86112
305.91,10.68346
308.13,11.15288
310.35,4.742956
312.56,-0.831082
314.77,2.22952
316.99,-1.013902
319.2,-0.655058
321.41,1.515444
323.62,6.12248
325.83,-0.1256692
328.04,4.28996
330.25,2.0891
332.46,5.89252
334.67,4.951818
336.88,8.45076
339.08,12.37574
341.29,17.94518
343.5,23.9486
345.7,57.094
347.91,110.0154
350.11,260.202
352.31,492.83
354.52,642.068
356.72,557.65
358.92,346.316
361.12,198.35
363.32,108.8622
365.52,70.0724
367.72,53.8324
369.92,37.8608
372.12,36.3716
374.32,46.995
376.51,69.7134
378.71,80.1804
380.9,60.8248
383.1,38.6826
385.29,18.1382
387.49,13.0015
389.68,11.28124
391.87,4.1156
394.07,-2.57476
396.26,2.21688
398.45,-4.92682
400.64,10.7255
402.83,12.81856
405.02,18.6506
407.21,35.6348
409.39,58.321
411.58,155.19
413.77,401.588
415.95,675.11
418.14,700
420.32,459.162
422.51,223.368
424.69,118.332
426.87,87.0272
429.06,84.4972
431.24,65.2886
433.42,55.1426
435.6,22.2164
437.78,9.6584
439.96,1.775692
442.14,-0.03197598
444.31,16.32954
446.49,30.5316
448.67,38.8662
450.84,35.6168
453.02,12.50084
455.19,-0.72932
457.37,-2.72262
459.54,-8.95218
461.71,-4.47652
463.89,-6.987656
466.06,-6.26372
468.23,-8.0005
470.4,-15.51818
472.57,-11.810844
474.74,-10.9326
476.91,-8.36914
479.07,-10.63208
481.24,3.349234
483.41,3.798008
485.57,2.140908
487.74,-0.95232
489.9,12.182
492.07,3.041138
494.23,-1.533004
496.4,-0.424468
498.56,-4.7879
500.72,-4.87534
502.88,-12.09812
505.04,-13.47482
507.2,-10.316098
509.36,-6.34994
511.52,-11.70616
513.68,-6.304778
515.83,-2.31818
517.99,-1.5672
520.14,-9.51528
522.3,-10.93182
524.45,-6.9857
526.61,-2.10074
528.76,-6.68038
530.91,-2.35284
533.07,3.91294
535.22,2.35044
537.37,2.34672
539.52,2.39246
541.67,8.01614
543.82,1.19034
545.97,-3.037088
548.11,6.48106
550.26,-0.917816
552.41,-1.70734
554.55,-0.94122
556.7,-3.00194
558.84,-2.18
560.98,8.702188
563.13,11.6898
565.27,19.145
567.41,24.9658
569.55,44.449
571.69,78.134
573.83,147.756
575.97,218.464
578.11,271.044
580.25,355.276
582.39,663.79
584.52,1256.56
586.66,1715.24
588.79,1598.28
590.93,1044.826
593.06,563.92
595.19,292.586
597.33,156.878
599.46,92.0942
601.59,53.4714
603.72,30.8048
605.85,10.35428
607.98,-0.00973
610.11,2.703172
612.24,-4.47506
614.36,6.428192
616.49,-6.36546
618.62,0.75412
620.74,5.234774
622.87,-0.20478
624.99,0.225896
627.11,-1.57952
629.24,4.57774
631.36,-4.602816
633.48,-2.72644
635.6,0.62298
637.72,1.11938
639.84,-0.24292
641.96,0.0995468
644.08,-5.16446
646.2,-6.98366
648.31,-6.34074
650.43,-8.5763
652.54,-2.70442
654.66,-11.00064
656.77,-13.7307
658.89,-17.0958
661,-13.2972
663.11,-11.48306
665.22,-14.2239
667.33,-15.21766
669.44,-17.60252
671.55,-20.792
673.66,-22.8256
675.77,-26.9628
677.88,-27.1242
679.98,-25.5072
682.09,-14.31982
684.2,-11.11736
686.3,-13.42542
688.4,-13.571
690.51,-3.4532
692.61,-2.331808
694.71,2.0573
696.81,2.397254
698.92,3.5412
701.02,6.45434
703.11,18.7585
705.21,14.60188
707.31,18.11832
709.41,23.39994
711.51,29.2656
713.6,26.2486
715.7,21.4867
717.79,16.60536
719.89,16.26364
721.98,21.2624
724.07,16.13934
726.16,11.33748
728.25,7.07056
730.35,16.75658
732.44,21.547
734.52,32.5384
736.61,48.8972
738.7,65.6324
740.79,97.5784
742.87,137.67
744.96,179.632
747.05,239.58
749.13,269.738
751.21,265.134
753.3,226.856
755.38,173.466
757.46,124.622
759.54,86.785
761.62,61.8162
763.7,38.6906
765.78,24.45376
767.86,13.85
769.94,5.614266
772.01,6.21166
774.09,-0.758048
776.17,2.10544
778.24,-1.855084
780.32,0.0699519999999996
782.39,0.98094
784.46,3.15098
786.53,8.69024
788.61,5.9646
790.68,10.45904
792.75,9.870592
794.82,12.629266
796.89,9.1678
798.95,8.662312
801.02,15.502
803.09,14.21078
805.15,22.458
807.22,35.406
809.28,83.2538
811.35,190.56
813.41,300.346
815.47,305.212
817.53,192.7
819.6,96.5226
821.66,51.6934
823.72,25.3938
825.78,10.33142
827.83,12.49658
829.89,14.15516
831.95,10.89756
834,8.633126
836.06,5.15541
838.12,12.33988
840.17,8.96494
842.22,7.71054
844.28,5.35872
846.33,8.81622
848.38,6.587092
850.43,10.936668
852.48,11.135082
854.53,11.01216
856.58,8.82556
858.63,13.5155
860.67,9.35475
862.72,13.0541
864.77,7.21546
866.81,8.112128
868.86,3.54264
870.9,4.90011
872.94,1.242412
874.98,-0.341524
877.03,3.846244
879.07,0.43264
881.11,-0.6453
883.15,2.236282
885.19,4.09818
887.22,8.32504
889.26,4.86526
891.3,1.325878
893.33,3.75404
895.37,-3.672022
897.4,0.0454399999999998
899.44,0
901.47,1.5435
903.5,4.305284
905.54,7.12274
907.57,5.85446
909.6,8.113302
911.63,2.15089
913.66,6.24493
915.68,2.78678
917.71,4.9002
919.74,3.37184282
921.76,2.56528
923.79,-4.51624
925.82,-0.056632
927.84,6.493984
929.86,6.1119
931.89,4.10826
933.91,8.9176
935.93,8.54462
937.95,8.449762
939.97,-0.72492
941.99,5.31759
944.01,5.15824
946.02,0.0391199999999998
948.04,1.79436
950.06,-0.443938
952.07,3.0567
954.09,8.5837
956.1,3.0569
958.12,-0.188317
960.13,6.479064
962.14,1.558724
964.15,1.029832
966.16,-0.42766
968.17,-2.042796
970.18,0.1989926
972.19,-1.78026
974.2,4.65774
976.2,4.65306
978.21,7.73852
980.22,8.489
982.22,8.35302
984.22,6.4271
986.23,12.31664
988.23,6.9044
990.23,9.90074
992.23,5.019866
994.24,10.185
996.23,4.96766
998.23,9.71986
1000.2,10.5009
1002.2,16.71
1004.2,17.2902
1006.2,15.421
1008.2,20.7088
1010.2,19.5698
1012.2,16.89398
1014.2,22.626
1016.2,24.898
1018.2,24.2866
1020.2,20.7168
1022.2,28.0148
1024.2,34.9378
1026.1,42.3286
1028.1,58.7492
1030.1,97.5208
1032.1,192.254
1034.1,260.198
1036.1,237.518
1038.1,149.732
1040.1,88.7398
1042,57.173
1044,45.3298
1046,35.2818
1048,34.3758
1050,38.5644
1051.9,33.4404
1053.9,34.3196
1055.9,33.1958
1057.9,24.8726
1059.9,27.6844
1061.8,25.6038
1063.8,23.4026
1065.8,25.3758
1067.8,22.4196
1069.7,22.4624
1071.7,23.6332
1073.7,22.0176
1075.6,18.854
1077.6,23.8672
1079.6,13.9376
1081.5,15.93352
1083.5,13.73414
1085.5,11.33254
1087.5,10.1542
1089.4,7.653
1091.4,7.8726
1093.3,7.88158
1095.3,11.50812
1097.3,11.33874
1099.2,8.30822
1101.2,4.61808
1103.2,7.130246
1105.1,7.41106
1107.1,2.57658
1109,7.741632
1111,0.85692
1113,-1.640042
1114.9,4.394378
1116.9,0.172268
1118.8,-2.87858
1120.8,11.6959
1122.7,10.0654
1124.7,9.18082
1126.6,11.234008
1128.6,10.37302
1130.5,14.579
1132.5,9.35352
1134.4,12.68458
1136.4,14.9952
1138.3,13.9932
1140.3,13.22858
1142.2,13.7794
1144.2,15.2615
1146.1,20.68064
1148.1,14.228
1150,22.4264
1151.9,19.6824
1153.9,19.7184
1155.8,18.6162
1157.8,13.48964
1159.7,20.2716
1161.6,18.2384
1163.6,22.072
1165.5,23.824
1167.5,24.7208
1169.4,26.3158
1171.3,31.309
1173.3,29.6396
1175.2,31.03
1177.1,29.593
1179.1,33.1302
1181,32.7842
1182.9,36.8002
1184.9,35.9254
1186.8,39.6888
1188.7,44.0378
1190.6,41.9876
1192.6,48.2148
1194.5,55.4904
1196.4,55.783
1198.4,54.9368
1200.3,55.3374
1202.2,59.241
1204.1,66.2684
1206,62.9566
1208,66.0268
1209.9,67.248
1211.8,69.6306
1213.7,72.9654
1215.6,74.877
1217.6,75.113
1219.5,79.1376
1221.4,77.5106
1223.3,77.7354
1225.2,72.2498
1227.1,73.94
1229.1,74.9794
1231,75.092
1232.9,77.0838
1234.8,78.9006
1236.7,79.6402
1238.6,80.759
1240.5,83.0532
1242.4,89.2668
1244.3,93.9746
1246.2,100.495
1248.1,98.4894
1250.1,98.1646
1252,102.1288
1253.9,106.602
1255.8,112.474
1257.7,125.184
1259.6,140.966
1261.5,158.188
1263.4,174.874
1265.3,192.09
1267.2,214.072
1269.1,234.168
1271,262.29
1272.9,274.468
1274.8,281.95
1276.6,282.628
1278.5,273.584
1280.4,269.3
1282.3,290.436
1284.2,306.96
1286.1,278.868
1288,216.71
1289.9,165.458
1291.8,142.046
1293.7,129.028
1295.6,117.978
1297.4,108.88
1299.3,99.2884
1301.2,99.6742
1303.1,99.674
1305,89.2664
1306.9,87.3578
1308.7,88.6664
1310.6,85.6444
1312.5,82.8078
1314.4,79.833
1316.3,76.9742
1318.1,80.6344
1320,80.4752
1321.9,74.588
1323.8,77.1208
1325.7,78.229
1327.5,78.7848
1329.4,79.1144
1331.3,81.7648
1333.1,76.7036
1335,82.0248
1336.9,81.4734
1338.8,79.1918
1340.6,88.4522
1342.5,89.2852
1344.4,95.653
1346.2,101.6014
1348.1,106.912
1350,112.138
1351.8,118.264
1353.7,127.392
1355.6,128.016
1357.4,129.668
1359.3,138.194
1361.1,143.364
1363,158.92
1364.9,180.584
1366.7,196.24
1368.6,225.262
1370.4,263.782
1372.3,314.542
1374.2,389.36
1376,490.954
1377.9,625.526
1379.7,770.042
1381.6,868.288
1383.4,907.508
1385.3,901.196
1387.1,826.482
1389,683.42
1390.8,511.662
1392.7,383.802
1394.5,316.776
1396.4,267.65
1398.2,234.634
1400.1,210.476
1401.9,191.916
1403.8,176.26
1405.6,159.574
1407.4,142.03
1409.3,122.41
1411.1,106.354
1413,80.8572
1414.8,73.621
1416.6,61.2868
1418.5,52.0872
1420.3,45.1604
1422.2,43.9416
1424,37.7552
1425.8,32.3884
1427.7,30.7224
1429.5,24.916
1431.3,20.3254
1433.2,20.2838
1435,13.56386
1436.8,11.77316
1438.7,16.54408
1440.5,12.45776
1442.3,8.672962
1444.1,8.298128
1446,8.51702
1447.8,4.699264
1449.6,5.314356
1451.4,2.433326
1453.3,0.9502
1455.1,2.325814
1456.9,-1.290968
1458.7,3.138924
1460.6,-2.59806
1462.4,5.501968
1464.2,1.092794
1466,-1.9146392
1467.8,-4.7253
1469.6,-5.49372
1471.5,-7.2418728
1473.3,-6.059582
1475.1,-5.348192
1476.9,-4.989888
1478.7,-3.81222
1480.5,-3.48454
1482.4,-4.951276
1484.2,-3.267738
1486,-3.54946
1487.8,-0.999676
1489.6,-1.668656
1491.4,-1.2699
1493.2,-1.09124
1495,-4.0755
1496.8,2.571774
1498.6,-1.5752
1500.4,1.40336
1502.2,-7.20448
1504,-2.716012
1505.8,4.42472
1507.6,0.35656
1509.4,-0.316664
1511.2,4.088
1513,-2.8508
1514.8,-1.832828
1516.6,-4.70298
1518.4,-0.0991500000000002
1520.2,0.5718304
1522,-0.685102
1523.8,-1.109404
1525.6,-2.51024
1527.4,0.49548
1529.2,2.81154
1531,1.279166
1532.8,2.727184
1534.6,0.5077
1536.4,1.471328
1538.2,-0.808172
1539.9,1.58692
1541.7,1.275802
1543.5,5.46272
1545.3,8.07902
1547.1,10.97142
1548.9,14.21428
1550.7,23.6402
1552.4,31.2356
1554.2,34.231
1556,39.496
1557.8,37.9748
1559.6,29.3036
1561.3,33.377
1563.1,30.3876
1564.9,40.3466
1566.7,38.4344
1568.4,42.7158
1570.2,51.2866
1572,51.8914
1573.8,56.9156
1575.5,58.622
1577.3,64.5388
1579.1,74.9948
1580.9,81.4076
1582.6,83.328
1584.4,91.9532
1586.2,94.2638
1587.9,100.636
1589.7,108.416
1591.5,114.042
1593.2,123.102
1595,125.334
1596.8,136.1
1598.5,139.226
1600.3,152.064
1602,160.862
1603.8,166.824
1605.6,174.75
1607.3,185.806
1609.1,194.358
1610.8,201.892
1612.6,205.79
1614.4,214.888
1616.1,224.496
1617.9,232.358
1619.6,239.21
1621.4,239.412
1623.1,253.372
1624.9,257.962
1626.6,263.566
1628.4,271.616
1630.1,275.972
1631.9,280.75
1633.6,285.356
1635.4,287.982
1637.1,288.866
1638.9,291.06
1640.6,289.746
1642.4,290.818
1644.1,285.33
1645.8,285.62
1647.6,290.824
1649.3,286.516
1651.1,289.868
1652.8,284.076
1654.6,279.746
1656.3,273.034
1658,269.116
1659.8,270.342
1661.5,266.23
1663.2,261.032
1665,255.272
1666.7,250.698
1668.4,246.662
1670.2,244.474
1671.9,237.814
1673.6,235.054
1675.4,229.884
1677.1,220.434
1678.8,219.71
1680.5,214.026
1682.3,206.734
1684,201.104
1685.7,197.884
1687.5,199.964
1689.2,192.01
1690.9,191.772
1692.6,188.376
1694.3,185.302
1696.1,185.452
1697.8,180.85
1699.5,179.844
1701.2,180.128
1702.9,174.546
1704.7,170.92
1706.4,169.436
1708.1,169.87
1709.8,171.25
1711.5,169.676
1713.2,161.386
1714.9,161.51
1716.7,157.53
1718.4,156.844
1720.1,151.818
1721.8,149.618
1723.5,142.84
1725.2,131.714
1726.9,132.558
1728.6,131.088
1730.3,125.832
1732,119.902
1733.7,114.592
1735.4,105.1734
1737.1,101.9728
1738.8,92.4912
1740.6,92.8336
1742.3,82.69
1744,74.1936
1745.7,66.4028
1747.3,62.93
1749,56.006
1750.7,49.8624
1752.4,42.559
1754.1,43.6284
1755.8,38.4448
1757.5,34.5396
1759.2,29.7958
1760.9,24.6726
1762.6,24.2838
1764.3,17.10208
1766,21.8622
1767.7,19.7864
1769.4,19.81466
1771.1,15.46512
1772.7,14.38442
1774.4,13.31602
1776.1,14.99764
1777.8,11.05892
1779.5,12.12568
1781.2,8.896802
1782.8,6.84307
1784.5,9.25542
1786.2,5.485876
1787.9,-1.38364
1789.6,6.24022
1791.2,6.33432
1792.9,7.338628
1794.6,-0.366708
1796.3,0.48089
1798,-0.98513
1799.6,3.63611
1801.3,3.14642
1803,-1.539784
1804.7,0.482118
1806.3,-1.41756
1808,-2.1165616
1809.7,-1.955132
1811.3,-6.49314
1813,-0.60623
1814.7,-1.152036
1816.3,-3.949308
1818,0.94958
1819.7,-1.126578
1821.3,-0.0921799999999997
1823,-1.580954
1824.7,-0.946686
1826.3,-2.22114
1828,-2.961394
1829.7,-0.675762
1831.3,0.909916
1833,-1.53651
1834.6,3.206468
1836.3,-0.40876
1838,-1.4919896
1839.6,0.903202
1841.3,2.165084
1842.9,0.20598
1844.6,-1.22572
1846.2,-3.29304
1847.9,-7.295952
1849.5,-5.28196
1851.2,0.962174
1852.8,-1.72274
1854.5,1.359162
1856.1,1.684448
1857.8,0.468154
1859.4,-2.078562
1861.1,-1.223714
1862.7,0.75494
1864.4,-2.275878
1866,0.573154
1867.7,-1.5301104
1869.3,-0.57822
1871,0.20016
1872.6,-2.35848
1874.2,3.31928
1875.9,0.669138
1877.5,-0.117704000000001
1879.2,0
1880.8,0.16352
1882.4,-4.97686
1884.1,-3.271558
1885.7,-0.978608
1887.3,-6.47212
1889,-4.90581252
1890.6,-6.252402
1892.2,-4.9549
1893.9,-6.26028
1895.5,-8.2002
1897.1,0.136238
1898.8,-4.4257
1900.4,-5.8602
1902,-4.792136
1903.7,-8.068406
1905.3,-2.739958
1906.9,-7.18306
1908.5,-1.857374
1910.2,-5.44242
1911.8,-5.75148
1913.4,-5.1418
1915,-1.844188
1916.7,-2.60204
1918.3,-4.32698
1919.9,-7.3309
1921.5,-4.67778
1923.1,-6.39405
1924.8,-3.4784
1926.4,-1.48548
1928,-1.7690504
1929.6,0.141914
1931.2,-1.94774
1932.8,-1.0619054
1934.4,-2.177024
1936.1,-1.3721
1937.7,-2.029586
1939.3,-5.92196
1940.9,-4.048284
1942.5,-1.92128
1944.1,-3.061284
1945.7,-1.51315
1947.3,-1.41928
1948.9,-1.3485722
1950.5,0.0353100000000001
1952.1,-0.0015944
1953.8,0.179272
1955.4,4.02054
1957,-2.36698
1958.6,-4.25784
1960.2,-6.46568
1961.8,0.91504
1963.4,-0.48912
1965,-0.982822
1966.6,-1.1667
1968.2,-3.76888
1969.8,1.84522
1971.4,-3.73428
1973,0.116542
1974.5,-4.22103
1976.1,-4.41142
1977.7,0.052166
1979.3,-2.05162
1980.9,0.145834
1982.5,-0.186992
1984.1,-2.12592
1985.7,0.602602
1987.3,0.918852
1988.9,1.04198
1990.5,0.087128
1992,0.67002
1993.6,0.6982
1995.2,5.55416
1996.8,1.593366
1998.4,-3.81458
2000,1.74084
2001.6,6.65558
2003.1,3.761028
2004.7,2.484874
2006.3,4.2038006
2007.9,0.59088
2009.5,0.94932
2011,6.767452
2012.6,2.384298
2014.2,5.09278
2015.8,0.853042
2017.3,6.008552
2018.9,-1.0558378
2020.5,5.61498
2022.1,4.713456
2023.6,3.458134
2025.2,4.30558
2026.8,-0.84915
2028.3,-0.384298
2029.9,4.131958
2031.5,2.063846
2033,4.08158
2034.6,1.118686
2036.2,1.492196
2037.7,6.3327982
2039.3,1.949608
2040.9,3.259534
2042.4,5.73732
2044,2.9859
2045.6,2.816386
2047.1,5.106906
2048.7,3.6356
2050.2,0.94043
2051.8,2.83664
2053.4,3.253904
2054.9,1.602416
2056.5,2.467256
2058,3.65394
2059.6,3.783894
2061.1,3.06749
2062.7,4.379152
2064.2,1.869026
2065.8,3.562622
2067.3,2.150364
2068.9,4.715244
2070.4,1.285171
2072,-1.803526
2073.5,-0.779188
2075.1,-0.19293
2076.6,3.01428
2078.2,-2.47828
2079.7,3.92131
2081.3,2.7903856
2082.8,3.378222
2084.4,4.71882
2085.9,7.9836
2087.4,4.5091262
2089,5.231172
2090.5,7.52178
2092.1,6.94276
2093.6,4.73678
2095.1,4.04074
2096.7,3.66476
2098.2,7.8567
2099.7,6.3038
2101.3,11.11682
2102.8,4.25586
2104.3,4.41884
2105.9,5.9806646
2107.4,8.9385
2108.9,7.09276
2110.5,6.99558
2112,5.2333756
2113.5,8.66514
2115.1,8.62222
2116.6,8.04094
2118.1,4.17462
2119.6,8.6837
2121.2,5.96192
2122.7,6.7975
2124.2,1.359942
2125.7,5.954
2127.3,7.29124
2128.8,2.54844
2130.3,9.47024
2131.8,13.68408
2133.3,19.8682
2134.9,32.4752
2136.4,43.7976
2137.9,59.6286
2139.4,74.2634
2140.9,84.4664
2142.4,75.3768
2144,57.0874
2145.5,30.176
2147,20.6884
2148.5,16.43566
2150,11.52706
2151.5,8.85058
2153,4.551658
2154.5,6.67786
2156,3.825352
2157.6,4.211796
2159.1,0.945932
2160.6,-1.365644
2162.1,1.4787124
2163.6,0.957832
2165.1,-0.8008024
2166.6,2.51962
2168.1,-1.636696
2169.6,-5.7676
2171.1,0.74594
2172.6,1.365046
2174.1,-0.526996
2175.6,1.37696
2177.1,-1.886888
2178.6,-2.1253
2180.1,0.10338
2181.6,-2.47702
2183.1,-4.22942
2184.6,-2.083078
2186.1,1.56332
2187.5,-2.663922
2189,-0.3057154
2190.5,-0.28248
2192,0.64577
2193.5,-2.00522
2195,-0.16976
2196.5,-1.56534
2198,-2.149954
2199.5,-5.20426
2201,-2.649488
2202.4,-2.922876
2203.9,-3.782328
2205.4,-2.705046
2206.9,-3.80104
2208.4,-2.003238
2209.9,-3.354888
2211.3,-2.23962
2212.8,-4.017914
2214.3,-3.849979
2215.8,-1.88568
2217.3,-3.089866
2218.7,-6.4174848
2220.2,-2.690312
2221.7,-5.66942
2223.2,-1.37438
2224.6,-1.757378
2226.1,-3.531
2227.6,-5.178412
2229.1,-3.122346
2230.5,-7.81588
2232,-3.48272
2233.5,-1.70466
2234.9,-4.19108
2236.4,0.2315
2237.9,-4.6541516
2239.3,-0.47044
2240.8,-1.77668
2242.3,-0.74016
2243.7,-2.149528
2245.2,-3.0057
2246.7,-2.2907
2248.1,-6.158288
2249.6,-2.87978
2251.1,-4.11098
2252.5,-3.843352
2254,-5.673746
2255.4,0.42042
2256.9,-0.82724
2258.3,-0.200552
2259.8,-1.36984
2261.3,-2.56336
2262.7,1.904794
2264.2,0.225813999999999
2265.6,1.39386
2267.1,-1.78304
2268.5,-0.6360484
2270,0.95356
2271.4,-0.7944
2272.9,0.729825999999999
2274.3,0
2275.8,-0.0218399999999999
2277.2,-0.71038
2278.7,0.39862
2280.1,1.63798
2281.6,2.1997
2283,1.945974
2284.5,2.153858
2285.9,1.63002
2287.4,-1.59602
2288.8,-2.272
2290.2,-2.421276
2291.7,-0.53292
2293.1,1.0586618
2294.6,-0.216556
2296,-1.679658
2297.4,-0.635464
2298.9,2.04952
2300.3,0.70944
2301.7,-1.91369
2303.2,1.850986
2304.6,-4.245828
2306,-4.332072
2307.5,-1.6457
2308.9,1.26434
2310.3,2.2166
2311.8,-1.332172
2313.2,0.98168
2314.6,-0.67664
2316.1,3.22208
2317.5,-1.3435
2318.9,4.64622
2320.3,3.003372
2321.8,3.88458
2323.2,6.26848
2324.6,7.88689
2326,18.79276
2327.5,26.1474
2328.9,27.7412
2330.3,32.3698
2331.7,25.75508
2333.2,14.24938
2334.6,9.13932
2336,7.55738
2337.4,3.22972
2338.8,1.439874
2340.2,1.117402
2341.7,4.15372
2343.1,1.07192
2344.5,4.42596
2345.9,5.97374
2347.3,0.239788
2348.7,0.562038
2350.1,2.75726
2351.6,1.946274
2353,2.82872
2354.4,3.53264
2355.8,2.9707468
2357.2,-0.42998
2358.6,-3.3285344
2360,1.256622
2361.4,3.0600356
2362.8,4.326868
2364.2,5.5845
2365.6,0.4813
2367,6.60848
2368.4,5.48684
2369.8,7.049052
2371.2,4.8977
2372.6,1.6405
2374,3.16096
2375.4,1.32852
2376.8,3.309964
2378.2,2.8697
2379.6,2.5355
2381,4.762352
2382.4,5.53278
2383.8,5.39028
2385.2,5.2361
2386.6,-0.0706260000000001
2388,3.2469
2389.4,3.37568
2390.8,2.20312
2392.1,-0.10912
2393.5,3.54072
2394.9,3.021986
2396.3,4.75604
2397.7,2.26508
2399.1,2.6816
2400.5,4.242084
2401.9,3.7854
2403.2,0.0377879999999999
2404.6,4.14776
2406,3.3285346
2407.4,3.16238
2408.8,2.031502
2410.2,-1.1582
2411.5,-0.0381800000000002
2412.9,-0.108652
2414.3,2.31186
2415.7,0
2417,5.34826
2418.4,0.942566
2419.8,1.300466
2421.2,4.099316
2422.5,-2.91562
2423.9,3.75562
2425.3,-1.389222
2426.7,-2.494936
2428,1.31198
2429.4,-0.12528
2430.8,-2.407698
2432.1,0.12827
2433.5,1.28514
2434.9,1.25441
2436.2,-0.571344
2437.6,1.69656
2439,2.075204
2440.3,1.615706
2441.7,3.96628
2443.1,-3.939162
2444.4,2.9087
2445.8,-3.272512
2447.2,-0.431392
2448.5,-0.74728
2449.9,1.319988
2451.2,3.79637
2452.6,-0.57302
2454,2.891344
2455.3,1.863434
2456.7,5.014492
2458,3.96632
2459.4,5.158502
2460.7,2.927874
2462.1,1.4389
2463.4,3.241564
2464.8,1.54966
2466.1,0.7475
2467.5,1.13192
2468.8,5.33508
2470.2,3.62267
2471.5,3.62194
2472.9,1.813772
2474.2,1.357664
2475.6,3.378754
2476.9,1.551044
2478.3,4.13733
2479.6,0.32472
2481,5.29252
2482.3,2.43462
2483.6,2.4479026
2485,0.910602
2486.3,0.99266
2487.7,-1.78512
2489,1.624162
2490.3,2.36376
2491.7,1.68178
2493,0.849508
2494.4,2.75474
2495.7,3.67718
2497,0.173954
2498.4,2.96164
2499.7,1.774344
2501,0.549686
2502.4,-0.12014
2503.7,-1.549434
2505,3.75654
2506.4,3.90848
2507.7,2.31406
2509,1.424638
2510.3,2.768252
2511.7,1.408066
2513,4.92304
2514.3,2.830438
2515.6,3.60214
2517,1.517054
2518.3,1.2821352
2519.6,-0.325216
2520.9,0
2522.3,1.170976
2523.6,1.732074
2524.9,0.09664
2526.2,1.614946
2527.5,0.00263999999999998
2528.9,-0.448962
2530.2,-2.787406
2531.5,-1.131004
2532.8,0.37384
2534.1,1.724488
2535.4,0.76052
2536.8,2.03288
2538.1,0.13639
2539.4,0.0774400000000001
2540.7,0.9967
2542,-0.463194
2543.3,-0.130276
2544.6,1.92024
2545.9,0.44304
2547.2,0.988222
2548.6,0.35008
2549.9,0.165318
2551.2,0.777878
2552.5,0.587862
2553.8,1.724584
2555.1,-1.24466
2556.4,2.631778
2557.7,-0.738818
2559,1.03115
2560.3,3.28298
2561.6,3.4255998
2562.9,0.83778
2564.2,1.315284
2565.5,-1.2185624
2566.8,2.62326
2568.1,2.181566
2569.4,4.81306
2570.7,-0.0439500000000001
2572,2.135372
2573.3,0.75488
2574.6,1.58288
2575.9,0.11258
2577.1,2.10198
2578.4,2.13748
2579.7,-2.6879
2581,3.66918
2582.3,-0.0451400000000001
2583.6,0.89756
2584.9,1.318324
2586.2,-1.885002
2587.5,1.69512
2588.7,0.379708
2590,3.5319
2591.3,3.7286
2592.6,1.14322
2593.9,2.475314
2595.2,0.418752
2596.4,0.00507999999999989
2597.7,1.395206
2599,3.076504
2600.3,-1.05626
2601.6,2.930876
2602.8,1.710139
2604.1,1.199654
2605.4,-1.548588
2606.7,-1.433066
2608,-0.15658
2609.2,-1.7802818
2610.5,1.414854
2611.8,-1.154702
2613,1.961072
2614.3,3.193308
2615.6,2.009756
2616.9,-1.2182
2618.1,-0.46858
2619.4,-2.043394
2620.7,2.829306
2621.9,0.317512
2623.2,1.26162
2624.5,0.152452
2625.7,-1.820624
2627,-2.60742
2628.3,-0.872016
2629.5,0
2630.8,-0.72
2632.1,-1.60736
2633.3,-0.21932
2634.6,-1.049764
2635.8,-2.63984
2637.1,-3.747568
2638.4,-0.6416
2639.6,-1.41728
2640.9,-3.4294
2642.1,-0.173424
2643.4,-2.116212
2644.6,-0.80975
2645.9,0.933442
2647.2,-2.750476
2648.4,-1.37806
2649.7,3.435478
2650.9,-4.011678
2652.2,-2.74812
2653.4,-3.08031
2654.7,-0.13636
2655.9,-4.44192
2657.2,-2.15148
2658.4,0.02836
2659.7,-0.939266
2660.9,0.753928
2662.2,0.81936
2663.4,-3.3868
2664.6,-3.70002
2665.9,-2.926122
2667.1,-3.38386
2668.4,-2.398674
2669.6,-0.926564
2670.9,-1.627114
2672.1,-0.50148
2673.3,-2.383582
2674.6,-1.67776
2675.8,-4.41972
2677.1,-1.340724
2678.3,-0.849508
2679.5,-0.0128298
2680.8,-3.48226
2682,-1.28106
2683.2,-1.7951364
2684.5,0.954962
2685.7,-1.711086
2686.9,-2.228692
2688.2,2.836422
2689.4,-3.2053
2690.6,-1.325532
2691.9,-2.89182
2693.1,-3.94088
2694.3,-1.37168
2695.5,1.37082
2696.8,-0.94658
2698,-0.123888
2699.2,-0.811538
2700.4,-2.72306
2701.7,0.406118
2702.9,-2.535306
2704.1,-1.183618
2705.3,-1.344776
2706.6,-2.22962
2707.8,2.4856476
2709,0.463706
2710.2,-2.71948
2711.4,-3.80586
2712.6,-0.0386799999999999
2713.9,-3.51318
2715.1,0.9276082
2716.3,-2.779666
2717.5,2.633824
2718.7,-4.638136
2719.9,-2.73824
2721.2,-1.49386
2722.4,-1.4642
2723.6,-2.8889
2724.8,2.764002
2726,0
2727.2,0.49501
2728.4,1.9114928
2729.6,-0.09458
2730.8,-3.37602
2732,0.82594
2733.3,-2.365068
2734.5,1.982598
2735.7,-0.054076
2736.9,-1.855936
2738.1,-2.07482
2739.3,-1.5245
2740.5,-2.648894
2741.7,-2.93278
2742.9,-3.2943188
2744.1,1.32698
2745.3,-1.00506
2746.5,-1.19628
2747.7,-2.50066
2748.9,0.6092706
2750.1,-1.5714
2751.3,-1.560202
2752.5,0.593466
2753.7,0.489106
2754.9,-1.18888
2756,-0.613096
2757.2,-1.071742
2758.4,1.097028
2759.6,-2.308484
2760.8,-0.282382
2762,0.622988
2763.2,1.292354
2764.4,-0.25518
2765.6,-0.26798
2766.8,-0.448788
2767.9,-0.55036
2769.1,0.5237
2770.3,-3.64244
2771.5,-2.4963162
2772.7,-0.924328
2773.9,1.9751
2775.1,0.81318
2776.2,-2.378688
2777.4,-1.24286
2778.6,1.94422
2779.8,-1.97472
2781,2.3508
2782.1,0.4930296
2783.3,1.922772
2784.5,3.05378
2785.7,-0.0860200000000001
2786.8,2.7606
2788,-0.30972
2789.2,-0.8011304
2790.4,0.6061486
2791.5,1.244722
2792.7,0.608114
2793.9,0.148088
2795.1,1.819074
2796.2,3.865846
2797.4,0.370174
2798.6,1.98922
2799.7,-1.32997
2800.9,0.59508
2802.1,2.94392
2803.2,3.020638
2804.4,0.69194
2805.6,0.0852200000000002
2806.7,1.86636
2807.9,-0.93282
2809.1,2.4548
2810.2,1.437674
2811.4,0.359154
2812.6,-1.44446
2813.7,1.9572104
2814.9,-0.37786
2816,2.2826074
2817.2,2.044142
2818.4,0
2819.5,1.28896
2820.7,3.800644
2821.8,-0.38934
2823,-0.34095
2824.1,1.80029
2825.3,1.292308
2826.4,0.2521
2827.6,2.048006
2828.7,1.31046
2829.9,3.7131214
2831,-2.543922
2832.2,2.92046
2833.3,1.6673066
2834.5,1.607194
2835.6,0.422624
2836.8,0.697554
2837.9,1.13874
2839.1,1.1872
2840.2,0.3269806
2841.4,0.41158
2842.5,-1.1129
2843.7,-2.589774
2844.8,-2.2512
2845.9,-0.952314
2847.1,2.509398
2848.2,0.438842
2849.4,0.999098
2850.5,-0.711392
2851.7,1.0446256
2852.8,0.35116
2853.9,-0.49008
2855.1,0.16508
2856.2,-1.379
2857.3,2.2019
2858.5,1.8791
2859.6,-2.20886
2860.7,-1.383202
2861.9,-0.0549899999999998
2863,-2.857116
2864.1,-2.80388
2865.3,-2.0246
2866.4,-4.94462
2867.5,0.33568
2868.7,0.0999
2869.8,-2.7242394
2870.9,-2.03868
2872,-1.42681
2873.2,-2.990188
2874.3,-2.6156748
2875.4,-2.127084
2876.5,-1.6536916
2877.7,-3.55312
2878.8,-3.7361
2879.9,1.068064
2881,-1.00568
2882.2,-1.170238
2883.3,-2.94837
2884.4,-3.263668
2885.5,-2.50656
2886.6,-3.1247
2887.8,-2.961854
2888.9,-4.080346
2890,-1.10106
2891.1,-3.596076
2892.2,-2.40514
2893.3,-0.83074
2894.4,-3.64304
2895.6,0.30218
2896.7,-0.25048
2897.8,-1.021258
2898.9,-0.0260600000000001
2900,1.7873
2901.1,-1.010518
2902.2,1.584722
2903.3,2.321874
2904.4,-2.418652
2905.6,-0.447988
2906.7,1.3669
2907.8,2.551102
2908.9,7.5535
2910,3.516622
2911.1,5.02744
2912.2,3.58707
2913.3,5.86186
2914.4,4.860876
2915.5,3.61005
2916.6,4.9233
2917.7,4.88794
2918.8,6.02656
2919.9,7.646466
2921,9.06456
2922.1,11.04288
2923.2,10.1739
2924.3,8.13632
2925.4,12.07912
2926.5,11.93896
2927.6,11.05178
2928.7,9.44518
2929.8,8.36102
2930.8,15.9036
2931.9,14.1024
2933,15.7322
2934.1,13.97926
2935.2,16.5596
2936.3,15.71284
2937.4,17.0212
2938.5,17.6584
2939.6,15.30376
2940.6,19.26658
2941.7,19.8514
2942.8,18.42566
2943.9,19.9654
2945,17.7524
2946.1,20.22638
2947.2,18.0294
2948.2,19.912
2949.3,19.36854
2950.4,16.9546
2951.5,15.45434
2952.6,17.3482
2953.6,19.8888
2954.7,17.2124
2955.8,18.5404
2956.9,16.2874
2957.9,15.62018
2959,14.35998
2960.1,15.52856
2961.2,13.20076
2962.2,14.79692
2963.3,13.84234
2964.4,11.1573
2965.5,15.7254
2966.5,12.00618
2967.6,10.60456
2968.7,8.5165
2969.7,11.10132
2970.8,10.5104
2971.9,13.0958
2973,11.04406
2974,11.6426
2975.1,11.80618
2976.2,11.12732
2977.2,12.78704
2978.3,13.7633
2979.3,12.89096784
2980.4,13.296584
2981.5,15.25468
2982.5,13.71688
2983.6,12.53534
2984.7,16.1956
2985.7,13.45808
2986.8,10.20272
2987.8,13.2074
2988.9,13.32794
2989.9,13.38312
2991,16.7438
2992.1,13.7594
2993.1,13.979918
2994.2,17.1358
2995.2,18.06042
2996.3,17.7282
2997.3,16.771
2998.4,14.49858
2999.4,17.6806
3000.5,17.2544
3001.5,20.2124
3002.6,24.9018
3003.6,18.76084
3004.7,22.4988
3005.7,24.388
3006.8,22.7002
3007.8,23.7
3008.9,26.0252
3009.9,24.3926
3011,25.4252
3012,25.3668
3013,26.023
3014.1,26.3036
3015.1,28.9896
3016.2,30.9674
3017.2,30.7898
3018.2,33.0072
3019.3,31.7114
3020.3,34.5878
3021.4,31.453
3022.4,32.9428
3023.4,33.303
3024.5,33.033
3025.5,37.0652
3026.5,38.441
3027.6,38.423
3028.6,39.2884
3029.6,37.1722
3030.7,40.501
3031.7,41.681
3032.7,44.1646
3033.8,43.2082
3034.8,46.3282
3035.8,47.9452
3036.9,46.3806
3037.9,48.219
3038.9,51.0162
3039.9,48.7178
3041,49.8968
3042,51.8006
3043,50.2644
3044,55.9146
3045.1,55.8346
3046.1,53.0144
3047.1,59.6198
3048.1,59.0994
3049.2,58.7024
3050.2,58.1894
3051.2,59.4566
3052.2,63.3538
3053.2,63.1174
3054.3,64.3112
3055.3,64.1732
3056.3,64.6432
3057.3,67.7356
3058.3,69.5934
3059.3,71.2134
3060.3,72.1094
3061.4,72.6824
3062.4,75.2786
3063.4,75.7236
3064.4,74.3744
3065.4,79.0468
3066.4,81.5866
3067.4,78.1134
3068.4,81.7998
3069.5,82.0528
3070.5,84.4176
3071.5,83.728
3072.5,83.7562
3073.5,86.7452
3074.5,89.8994
3075.5,88.9292
3076.5,88.7478
3077.5,92.2406
3078.5,93.0196
3079.5,96.0524
3080.5,97.5332
3081.5,96.1638
3082.5,93.1642
3083.5,98.1294
3084.5,104.1098
3085.5,102.3688
3086.5,106.3042
3087.5,106.929
3088.5,105.512
3089.5,104.6958
3090.5,110.854
3091.5,111.4478
3092.5,109.057
3093.5,115.844
3094.5,115.886
3095.5,116.32
3096.4,117.628
3097.4,117.41
3098.4,117.806
3099.4,121.358
3100.4,127.026
3101.4,125.608
3102.4,131.004
3103.4,130.992
3104.4,124.394
3105.3,131.116
3106.3,139.834
3107.3,135.47
3108.3,137.362
3109.3,138.164
3110.3,147.108
3111.3,145.204
3112.2,147.262
3113.2,148.394
3114.2,149.082
3115.2,151.466
3116.2,154.618
3117.1,153.62
3118.1,156.196
3119.1,157.108
3120.1,160.566
3121,160.022
3122,162.486
3123,163.574
3124,165.798
3124.9,171.264
3125.9,168.39
3126.9,177.256
3127.9,173.346
3128.8,177.754
3129.8,179.484
3130.8,177.578
3131.7,181.26
3132.7,184.426
3133.7,182.004
3134.7,186.614
3135.6,184.814
3136.6,189.42
3137.6,189.662
3138.5,189.552
3139.5,191.474
3140.4,191.304
3141.4,200.36
3142.4,193.812
3143.3,201.87
3144.3,201.188
3145.3,201.35
3146.2,201.614
3147.2,206.154
3148.1,206.724
3149.1,210.992
3150.1,210.638
3151,208.98
3152,211.134
3152.9,210.366
3153.9,214.536
3154.8,217.582
3155.8,212.884
3156.7,213.07
3157.7,216.432
3158.6,218.796
3159.6,220.122
3160.6,223.84
3161.5,225.266
3162.5,224.062
3163.4,227.002
3164.4,225.582
3165.3,218.11
3166.2,231.498
3167.2,225.91
3168.1,229.38
3169.1,225.76
3170,227.55
3171,233.978
3171.9,231.02
3172.9,234.686
3173.8,232.256
3174.7,235.666
3175.7,234.324
3176.6,234.376
3177.6,230.682
3178.5,231.976
3179.5,238.118
3180.4,235.694
3181.3,241.982
3182.3,239.9
3183.2,236.738
3184.1,236.39
3185.1,238.44
3186,235.048
3186.9,241.098
3187.9,243.484
3188.8,239.736
3189.7,241.752
3190.7,240.914
3191.6,235.702
3192.5,238.314
3193.5,238.58
3194.4,241.72
3195.3,243.36
3196.3,238.01
3197.2,241.204
3198.1,238.83
3199,234.592
3200,232.622
3200.9,235.368
3201.8,238.422
3202.7,236.266
3203.7,234.254
3204.6,235.474
3205.5,231.388
3206.4,230.676
3207.3,229.178
3208.3,230.994
3209.2,226.794
3210.1,225.472
3211,224.35
3211.9,226.372
3212.9,225.564
3213.8,217.578
3214.7,217.084
3215.6,214.72
3216.5,215.876
3217.4,213.196
3218.4,214.39
3219.3,213.714
3220.2,208.866
3221.1,204.722
3222,205.582
3222.9,200.586
3223.8,197.366
3224.7,200.238
3225.6,196.004
3226.6,194.99
3227.5,194.242
3228.4,188.656
3229.3,183.766
3230.2,186.094
3231.1,182.548
3232,175.912
3232.9,174.288
3233.8,173.326
3234.7,167.232
3235.6,165.974
3236.5,162.642
3237.4,155.998
3238.3,154.43
3239.2,154.762
3240.1,147.026
3241,144.302
3241.9,141.73
3242.8,136.55
3243.7,129.482
3244.6,127.858
3245.5,120.896
3246.4,112.01
3247.3,109.688
3248.2,98.2568
3249.1,93.0214
3250,85.0916
3250.9,73.9516
3251.8,66.7844
3252.7,54.0132
3253.5,42.3818
3254.4,26.9074
3255.3,12.28008
3256.2,-8.49546
