250.34,-7.3123
252.57,-12.69864
254.8,0
257.03,-2.83748
259.26,-0.111188
261.48,0.58365
263.71,8.89464
265.94,-0.20844
268.16,1.55402
270.39,1.79551
272.61,0.88938
274.84,-1.453102
277.06,0.4314484
279.28,0.71996
281.51,4.107546
283.73,0.539058
285.95,0.6999
288.17,2.93525
290.39,2.195604
292.61,6.9648
294.83,-5.6168
297.05,2.9199
299.27,4.42082
301.48,3.0841
303.7,1.893
305.91,8.2969
308.13,11.0159
310.35,6.02342
312.56,2.64696
314.77,3.625526
316.99,2.91048
319.2,3.8536874
321.41,10.8986
323.62,5.12184
325.83,-0.1083444
328.04,4.7516
330.25,1.55609
332.46,3.56031
334.67,1.14692
336.88,6.93148
339.08,5.097878
341.29,14.3026
343.5,14.81196
345.7,37.062
347.91,67.9022
350.11,152.2664
352.31,311.094
354.52,412.1
356.72,376.928
358.92,241.84
361.12,134.8784
363.32,80.7884
365.52,57.4382
367.72,39.8368
369.92,31.3122
372.12,35.8978
374.32,50.6558
376.51,90.131
378.71,112.048
380.9,100.8
383.1,60.6172
385.29,24.5956
387.49,16.87076
389.68,10.0839
391.87,1.98088
394.07,0.011126
396.26,-0.019156
398.45,4.4787
400.64,5.615716
402.83,10.54917
405.02,20.6428
407.21,38.0312
409.39,55.6982
411.58,135.03
413.77,357.102
415.95,634.182
418.14,700
420.32,480.498
422.51,241.394
424.69,127.838
426.87,90.6786
429.06,83.281
431.24,81.1048
433.42,51.3456
435.6,31.8328
437.78,12.97384
439.96,0.47156
442.14,-0.0081608
444.31,6.29514
446.49,28.0164
448.67,37.0888
450.84,30.7286
453.02,14.8367
455.19,2.8247
457.37,-3.4799
459.54,-6.05802
461.71,-11.10016
463.89,-2.690698
466.06,-3.922752
468.23,-9.59104
470.4,-12.16124
472.57,-10.60516
474.74,-10.95514
476.91,-8.94104
479.07,-11.47458
481.24,-1.18507
483.41,3.194352
485.57,2.0648148
487.74,4.10822
489.9,9.9401
492.07,4.4792
494.23,-2.24534
496.4,0.94872
498.56,-7.67448
500.72,-8.01114
502.88,-7.67236
505.04,-12.77256
507.2,-8.54578
509.36,-5.66398
511.52,-6.27324
513.68,-4.83294
515.83,-5.51208
517.99,-4.824236
520.14,-7.21122
522.3,-7.472162
524.45,1.17338
526.61,-0.75843
528.76,2.891862
530.91,2.873536
533.07,5.37964
535.22,5.700172
537.37,6.93324
539.52,5.61708
541.67,9.223146
543.82,4.53052
545.97,6.93888
548.11,6.80332
550.26,-0.966012
552.41,-0.5311
554.55,1.13352
556.7,3.8211
558.84,7.283718
560.98,9.63254
563.13,8.300726
565.27,19.1282
567.41,21.4062
569.55,36.9714
571.69,60.182
573.83,114.272
575.97,166.278
578.11,208.624
580.25,240.894
582.39,403.542
584.52,756.184
586.66,1062.874
588.79,1034.462
590.93,714.162
593.06,397.496
595.19,205.732
597.33,111.0936
599.46,63.5468
601.59,37.6244
603.72,20.959
605.85,11.40646
607.98,-0.00514984
610.11,2.03086
612.24,-2.34594
614.36,2.48342
616.49,0.5097574
618.62,-1.115576
620.74,3.96418
622.87,-2.080282
624.99,1.176974
627.11,-6.56706
629.24,-8.08942
631.36,-4.89498
633.48,1.223648
635.6,-4.998252
637.72,-2.128652
639.84,-1.168006
641.96,0.0664548
644.08,-3.45268
646.2,-6.6151
648.31,-5.1512228
650.43,-9.2232
652.54,-14.9044
654.66,-12.4686
656.77,-8.79224
658.89,-8.349332
661,-7.78398
663.11,-8.471044
665.22,-14.83842
667.33,-12.09782
669.44,-20.4754
671.55,-20.3516
673.66,-14.61032
675.77,-20.457
677.88,-15.88022
679.98,-14.82972
682.09,-8.146662
684.2,-3.4857
686.3,2.96632
688.4,-2.79336
690.51,9.698272
692.61,12.94168
694.71,16.4602
696.81,23.2816
698.92,20.4794
701.02,26.6378
703.11,27.0702
705.21,33.2112
707.31,35.3712
709.41,40.067
711.51,43.5958
713.6,34.5592
715.7,29.581
717.79,31.2404
719.89,27.7774
721.98,22.05496
724.07,15.0192
726.16,17.0168
728.25,16.6784
730.35,16.28726
732.44,22.1022
734.52,33.9566
736.61,36.2148
738.7,57.7552
740.79,84.0154
742.87,112.024
744.96,160.74
747.05,206.536
749.13,241.234
751.21,236.796
753.3,209.21
755.38,163.12
757.46,117.268
759.54,79.0888
761.62,57.2308
763.7,32.2898
765.78,26.6606
767.86,12.055222
769.94,5.49224
772.01,-1.2485294
774.09,-0.219776
776.17,0.627866
778.24,-5.24682
780.32,-5.38432
782.39,1.70792
784.46,2.38662
786.53,6.15478
788.61,1.484794
790.68,7.9976
792.75,6.83288
794.82,10.23728
796.89,9.20476
798.95,6.2516
801.02,6.09196
803.09,8.48794
805.15,12.64102
807.22,23.8202
809.28,48.0906
811.35,111.8318
813.41,182.425
815.47,192.8596
817.53,130.945
819.6,70.9432
821.66,34.9442
823.72,18.28094
825.78,7.68018
827.83,8.4606
829.89,8.30218
831.95,6.896238
834,8.99702
836.06,7.84402
838.12,7.948854
840.17,5.89066
842.22,5.485641
844.28,5.70326
846.33,6.57286
848.38,9.13602
850.43,7.998036
852.48,6.93972
854.53,4.710188
856.58,8.17602
858.63,6.74528
860.67,7.114074
862.72,9.92627
864.77,4.730454
866.81,5.052286
868.86,3.097164
870.9,2.001944
872.94,-0.45862
874.98,0.121402
877.03,-2.390962
879.07,0.34678
881.11,0.81413
883.15,0.83254
885.19,-0.919148
887.22,3.703018
889.26,1.81198
891.3,-0.444638
893.33,-1.85828
895.37,-4.82914
897.4,-3.240858
899.44,0
901.47,-2.595388
903.5,-0.17186
905.54,2.863914
907.57,-1.141262
909.6,2.6025
911.63,-3.215296
913.66,-0.00778000000000008
915.68,7.06836
917.71,2.38454
919.74,-0.950484
921.76,-2.496282
923.79,-5.483538
925.82,-2.615978
927.84,3.732746
929.86,2.314992
931.89,3.46728
933.91,6.2662
935.93,5.82886
937.95,7.0969
939.97,5.57616
941.99,5.17648
944.01,-0.253114
946.02,-0.803542
948.04,2.340984
950.06,-0.125602
952.07,4.44874
954.09,8.241
956.1,5.16948
958.12,6.96576
960.13,6.94668
962.14,5.732486
964.15,6.01628
966.16,4.170766
968.17,1.7108888
970.18,-0.17285532
972.19,-1.659976
974.2,1.206628
976.2,3.38098
978.21,7.46406
980.22,6.80604
982.22,8.15456
984.22,12.95192
986.23,11.9843
988.23,6.824006
990.23,7.13624
992.23,4.287552
994.24,6.75964
996.23,7.994542
998.23,7.02016
1000.2,14.07162
1002.2,12.21564
1004.2,14.36998
1006.2,10.88472
1008.2,15.28966
1010.2,21.306
1012.2,18.5672
1014.2,16.0962
1016.2,18.4816
1018.2,16.4812
1020.2,20.012
1022.2,25.8774
1024.2,26.4662
1026.1,31.9646
1028.1,41.5764
1030.1,65.6344
1032.1,116.0764
1034.1,159.9348
1036.1,154.8132
1038.1,105.521
1040.1,65.9358
1042,44.384
1044,36.9788
1046,33.2338
1048,31.55
1050,30.074
1051.9,28.6586
1053.9,33.0624
1055.9,28.4174
1057.9,24.8434
1059.9,24.5386
1061.8,21.848
1063.8,22.5656
1065.8,20.7122
1067.8,20.8312
1069.7,15.6676
1071.7,16.0406
1073.7,19.412
1075.6,15.35332
1077.6,12.50102
1079.6,16.86058
1081.5,13.96142
1083.5,9.4893
1085.5,3.99622
1087.5,4.701624
1089.4,4.84114
1091.4,0.526458
1093.3,3.5527254
1095.3,2.511858
1097.3,1.6491
1099.2,2.936776
1101.2,0.140464
1103.2,0.0593139999999998
1105.1,1.47494
1107.1,1.68092
1109,-2.071794
1111,-0.830908
1113,0.00312599999999995
1114.9,-0.00719800000000013
1116.9,-0.0382999999999999
1118.8,-2.66574
1120.8,5.7426446
1122.7,2.90128
1124.7,3.80396
1126.6,2.77576
1128.6,5.7495
1130.5,8.148088
1132.5,4.06198
1134.4,1.74838
1136.4,7.870176
1138.3,7.29292
1140.3,9.14044
1142.2,11.15154
1144.2,10.10684
1146.1,13.58616
1148.1,10.17472
1150,14.55528
1151.9,15.66696
1153.9,15.60874
1155.8,11.8609548
1157.8,13.20666
1159.7,18.28914
1161.6,16.15636
1163.6,20.4762
1165.5,25.9442
1167.5,19.2313
1169.4,24.2908
1171.3,27.7382
1173.3,26.2358
1175.2,30.137
1177.1,27.7114
1179.1,33.9416
1181,37.6452
1182.9,38.5762
1184.9,42.7516
1186.8,49.2258
1188.7,49.094
1190.6,54.652
1192.6,58.4146
1194.5,63.5352
1196.4,64.2744
1198.4,66.0802
1200.3,72.7112
1202.2,71.078
1204.1,75.3286
1206,77.3602
1208,85.5776
1209.9,87.6982
1211.8,89.7824
1213.7,91.2738
1215.6,96.28
1217.6,95.807
1219.5,95.1608
1221.4,94.935
1223.3,94.7052
1225.2,91.6412
1227.1,95.1112
1229.1,92.8232
1231,90.3448
1232.9,87.6844
1234.8,85.389
1236.7,84.9064
1238.6,86.7286
1240.5,87.8886
1242.4,87.608
1244.3,90.276
1246.2,96.3914
1248.1,97.3824
1250.1,98.9644
1252,93.8222
1253.9,96.832
1255.8,105.98
1257.7,111.714
1259.6,123.558
1261.5,137.314
1263.4,150.778
1265.3,167.572
1267.2,187.352
1269.1,199.374
1271,220.158
1272.9,235.548
1274.8,244.01
1276.6,242.542
1278.5,232.286
1280.4,224.19
1282.3,223.144
1284.2,225.688
1286.1,206.296
1288,174.1
1289.9,139.132
1291.8,117.088
1293.7,104.862
1295.6,98.6058
1297.4,92.0794
1299.3,81.356
1301.2,83.0698
1303.1,80.0112
1305,75.9956
1306.9,78.5994
1308.7,78.1502
1310.6,73.198
1312.5,69.918
1314.4,70.9314
1316.3,68.1978
1318.1,66.4174
1320,63.771
1321.9,65.5182
1323.8,67.427
1325.7,63.2642
1327.5,68.6354
1329.4,67.0838
1331.3,61.5512
1333.1,67.8122
1335,69.628
1336.9,72.2112
1338.8,71.6192
1340.6,77.3302
1342.5,79.6968
1344.4,86.9588
1346.2,90.5294
1348.1,97.1378
1350,107.554
1351.8,114.94
1353.7,114.406
1355.6,121.676
1357.4,123.914
1359.3,124.368
1361.1,130.154
1363,144.362
1364.9,158.912
1366.7,178.51
1368.6,205.362
1370.4,236.946
1372.3,283.884
1374.2,352.984
1376,437.248
1377.9,550.54
1379.7,666.48
1381.6,757.008
1383.4,795.142
1385.3,767.274
1387.1,687.124
1389,569.506
1390.8,448.444
1392.7,353.024
1394.5,299.786
1396.4,261.864
1398.2,247.884
1400.1,226.124
1401.9,205.416
1403.8,189.252
1405.6,161.588
1407.4,143.038
1409.3,121.146
1411.1,106.7474
1413,88.0178
1414.8,77.721
1416.6,68.417
1418.5,56.1322
1420.3,50.6264
1422.2,44.2058
1424,41.8292
1425.8,30.4096
1427.7,29.4154
1429.5,26.2168
1431.3,21.001
1433.2,20.179
1435,14.49294
1436.8,13.2648
1438.7,13.3346
1440.5,11.82588
1442.3,9.1424
1444.1,11.10738
1446,9.80916
1447.8,6.67824
1449.6,5.619086
1451.4,1.87306
1453.3,1.212234
1455.1,3.20076
1456.9,-1.775758
1458.7,-2.021556
1460.6,-0.47196
1462.4,-1.792266
1464.2,-2.960644
1466,-5.16892
1467.8,-1.949478
1469.6,-3.713198
1471.5,-3.223444
1473.3,-4.34054
1475.1,-5.9910494
1476.9,-3.316188
1478.7,-4.635
1480.5,-4.79688
1482.4,-3.52884
1484.2,-5.94012
1486,-3.65782
1487.8,-5.74266
1489.6,-4.593006
1491.4,-6.617
1493.2,-4.761486
1495,-9.77594
1496.8,-4.39718
1498.6,-8.54888
1500.4,-7.95366
1502.2,-10.57128
1504,-5.71176
1505.8,-2.67326
1507.6,-3.00556
1509.4,-3.146575
1511.2,-3.490888
1513,0.203716
1514.8,-6.50366
1516.6,-5.703516
1518.4,-3.95424
1520.2,-6.40806
1522,-3.44478
1523.8,-6.05022
1525.6,-2.491018
1527.4,-3.077846
1529.2,-5.134472
1531,-2.951618
1532.8,-4.057636
1534.6,-2.473022
1536.4,-2.13488
1538.2,1.1833
1539.9,1.98184
1541.7,3.18982
1543.5,6.598172
1545.3,8.01954
1547.1,6.36864
1548.9,8.10352
1550.7,16.5342
1552.4,24.0924
1554.2,29.3842
1556,35.4998
1557.8,31.244
1559.6,26.9056
1561.3,29.1414
1563.1,24.7484
1564.9,32.0786
1566.7,30.8926
1568.4,36.5854
1570.2,42.6484
1572,47.7278
1573.8,53.3152
1575.5,49.3082
1577.3,58.3732
1579.1,63.6772
1580.9,71.216
1582.6,75.4824
1584.4,79.9636
1586.2,93.1462
1587.9,90.4142
1589.7,100.386
1591.5,108.408
1593.2,110.918
1595,122.46
1596.8,128.134
1598.5,130.172
1600.3,140.916
1602,150.676
1603.8,155.01
1605.6,166.414
1607.3,176.464
1609.1,183.788
1610.8,188.104
1612.6,193.91
1614.4,205.344
1616.1,210.614
1617.9,217.05
1619.6,225.652
1621.4,227.956
1623.1,237.376
1624.9,246.058
1626.6,250.206
1628.4,253.286
1630.1,263.454
1631.9,264.032
1633.6,267.706
1635.4,272.314
1637.1,275.578
1638.9,278.118
1640.6,274.926
1642.4,276.268
1644.1,281.914
1645.8,281.77
1647.6,279.956
1649.3,275.892
1651.1,275.87
1652.8,270.014
1654.6,273.738
1656.3,268.986
1658,262.766
1659.8,263.25
1661.5,258.896
1663.2,255.618
1665,250.83
1666.7,244.984
1668.4,244.6
1670.2,243.182
1671.9,236.61
1673.6,232.332
1675.4,228.592
1677.1,230.184
1678.8,221.908
1680.5,216.42
1682.3,213.726
1684,209.234
1685.7,205.83
1687.5,212.89
1689.2,205.628
1690.9,204.04
1692.6,204.212
1694.3,203.62
1696.1,204.178
1697.8,206.706
1699.5,205.898
1701.2,206.504
1702.9,206.798
1704.7,206.352
1706.4,210.01
1708.1,205.528
1709.8,203.604
1711.5,199.886
1713.2,201.824
1714.9,198.612
1716.7,197.426
1718.4,197.568
1720.1,192.042
1721.8,186.318
1723.5,179.182
1725.2,176.17
1726.9,169.68
1728.6,164.026
1730.3,157.868
1732,154.108
1733.7,145.036
1735.4,142.246
1737.1,133.062
1738.8,122.604
1740.6,113.5308
1742.3,104.614
1744,93.547
1745.7,82.8692
1747.3,74.9586
1749,69.012
1750.7,62.7826
1752.4,55.18
1754.1,49.2464
1755.8,44.9596
1757.5,41.8314
1759.2,34.9234
1760.9,32.5522
1762.6,28.1034
1764.3,28.591
1766,21.2614
1767.7,20.6386
1769.4,17.14088
1771.1,15.3182
1772.7,17.0044
1774.4,12.3988
1776.1,12.30286
1777.8,10.72342
1779.5,6.25108
1781.2,6.96126
1782.8,7.20896
1784.5,5.155328
1786.2,4.96438
1787.9,-2.537418
1789.6,4.52688
1791.2,2.82012
1792.9,4.009096
1794.6,1.098484
1796.3,-1.45324
1798,-1.123108
1799.6,-1.39178
1801.3,-1.175706
1803,-2.93112
1804.7,-0.539032
1806.3,-2.12066
1808,-2.28226
1809.7,-4.39856
1811.3,-2.508982
1813,-1.07844
1814.7,-6.68808
1816.3,0.510558
1818,-1.17203
1819.7,-4.2645612
1821.3,-1.27782
1823,-1.31726
1824.7,-4.78276
1826.3,-2.42099
1828,-5.73446
1829.7,-2.4747
1831.3,-1.76101
1833,-2.988594
1834.6,-4.1975
1836.3,-5.3403
1838,-1.700366
1839.6,-2.356798
1841.3,-6.43512
1842.9,-3.215626
1844.6,-1.645121
1846.2,-0.863588
1847.9,-5.69606
1849.5,-2.389764
1851.2,-1.41704
1852.8,-4.53534
1854.5,-3.74242
1856.1,-0.627472
1857.8,-2.935748
1859.4,0.762606
1861.1,-2.18296
1862.7,-5.43934
1864.4,-3.4220584
1866,-3.1653818
1867.7,-2.756704
1869.3,-4.791
1871,-5.167182
1872.6,-3.35627
1874.2,-2.947174
1875.9,-2.99704
1877.5,-4.03128
1879.2,0
1880.8,-2.92117
1882.4,-7.12384
1884.1,-4.931224
1885.7,-4.83173
1887.3,-4.268694
1889,-4.713528
1890.6,-5.2802
1892.2,-5.2298
1893.9,-6.54008
1895.5,-6.62818
1897.1,-3.663096
1898.8,-1.22738
1900.4,-3.92872
1902,-6.55688
1903.7,-1.68178
1905.3,-3.1823
1906.9,-4.5226
1908.5,-4.80214
1910.2,-4.071
1911.8,-4.478262
1913.4,-3.89024
1915,-3.080358
1916.7,-1.737908
1918.3,-2.354578
1919.9,-5.33096
1921.5,-2.749024
1923.1,-1.484498
1924.8,-0.379114
1926.4,-3.40914
1928,-2.3744
1929.6,0.102758
1931.2,-0.326184
1932.8,-1.66322
1934.4,-2.769854
1936.1,-0.1308274
1937.7,-1.229018
1939.3,3.278058
1940.9,1.692164
1942.5,-1.930254
1944.1,-2.3478348
1945.7,-0.92126
1947.3,-0.60002
1948.9,0.68172
1950.5,-0.2177
1952.1,0.00958500000000001
1953.8,-0.743654
1955.4,0.15962
1957,-1.249018
1958.6,0.96418
1960.2,-1.314964
1961.8,1.791856
1963.4,2.77132
1965,-0.837244
1966.6,0.87584
1968.2,1.314765
1969.8,1.1666468
1971.4,1.7440628
1973,1.75556
1974.5,1.276376
1976.1,0.77864
1977.7,1.5296
1979.3,-0.53122
1980.9,-1.647844
1982.5,-4.7439
1984.1,0.10251336
1985.7,-0.927416
1987.3,0.767786
1988.9,1.21118
1990.5,0.4246
1992,0.070152
1993.6,-1.544646
1995.2,0.57804
1996.8,-1.53375024
1998.4,0.00292000000000021
2000,-1.72318
2001.6,0.334736
2003.1,1.68276
2004.7,-0.647656
2006.3,-0.9516618
2007.9,1.429468
2009.5,-0.1311132
2011,2.10934
2012.6,0.080618
2014.2,2.156422
2015.8,0.266704
2017.3,0.76326
2018.9,-0.933564
2020.5,4.96914
2022.1,0.409706
2023.6,4.47258
2025.2,-1.86182
2026.8,0.690224
2028.3,3.70348
2029.9,1.292278
2031.5,-0.65419
2033,0.85652
2034.6,5.38864
2036.2,-1.6726898
2037.7,1.53508
2039.3,2.4749
2040.9,0.0701799999999997
2042.4,3.795342
2044,0.258994
2045.6,0.785396
2047.1,2.003036
2048.7,2.4498
2050.2,-1.4053
2051.8,3.11670444
2053.4,3.77518
2054.9,2.769566
2056.5,2.04743
2058,2.994498
2059.6,-0.253016
2061.1,3.20661
2062.7,2.197966
2064.2,3.60808
2065.8,2.774456
2067.3,3.62466
2068.9,4.20784
2070.4,0.319808
2072,-0.707526
2073.5,3.33518
2075.1,2.92184
2076.6,-0.560618
2078.2,0.464042
2079.7,5.6675
2081.3,2.806088
2082.8,6.072954
2084.4,4.369944
2085.9,5.34802
2087.4,3.0167
2089,6.67238
2090.5,4.984196
2092.1,6.7681
2093.6,6.87484
2095.1,6.80986
2096.7,5.334226
2098.2,9.92
2099.7,6.32608
2101.3,7.488136
2102.8,5.55772
2104.3,7.55092
2105.9,8.64874
2107.4,3.500538
2108.9,5.84048
2110.5,7.16434
2112,5.0501426
2113.5,6.509292
2115.1,7.12438
2116.6,3.08042
2118.1,5.577358
2119.6,9.38226
2121.2,7.71377
2122.7,5.16798
2124.2,5.486848
2125.7,4.7254
2127.3,7.96038
2128.8,7.88872
2130.3,11.48022
2131.8,17.3888
2133.3,19.7786
2134.9,34.922
2136.4,49.5678
2137.9,61.214
2139.4,71.652
2140.9,73.8874
2142.4,68.8428
2144,51.1958
2145.5,32.1824
2147,23.544
2148.5,15.6684
2150,10.21432
2151.5,5.45596
2153,7.63502
2154.5,5.60222
2156,6.3492
2157.6,3.545078
2159.1,0.433388
2160.6,0.508402
2162.1,2.12698
2163.6,-0.290363
2165.1,0.24380458
2166.6,-1.368828
2168.1,-2.621402
2169.6,-7.53506
2171.1,1.230666
2172.6,-1.10523
2174.1,0.90152
2175.6,1.67822
2177.1,1.8026024
2178.6,-2.471868
2180.1,-1.109318
2181.6,-0.05924
2183.1,-1.595134
2184.6,-0.6858546
2186.1,-2.01402
2187.5,-1.78734
2189,-2.766802
2190.5,0.164194
2192,1.5548212
2193.5,-2.195362
2195,-1.25424
2196.5,-2.957134
2198,-1.25316
2199.5,1.236694
2201,-3.07058
2202.4,-1.007248
2203.9,-0.0931200000000001
2205.4,-2.416126
2206.9,-4.58284
2208.4,-0.1508
2209.9,-1.86424
2211.3,0.65255
2212.8,-2.978918
2214.3,-1.3344
2215.8,0.0576900000000001
2217.3,-5.007378
2218.7,-2.7059534
2220.2,-1.23462
2221.7,-0.61356
2223.2,-1.268732
2224.6,-2.814004
2226.1,-2.435144
2227.6,-0.865604
2229.1,-1.562708
2230.5,-2.73702
2232,-1.94096
2233.5,-3.7929
2234.9,-1.80042
2236.4,0.543048
2237.9,0.48554
2239.3,-1.21182
2240.8,1.12026
2242.3,-2.49963
2243.7,-1.60219
2245.2,-2.8794
2246.7,-1.436842
2248.1,2.1596
2249.6,-0.7147
2251.1,-0.91076
2252.5,-2.6070746
2254,0.193476
2255.4,-0.751294
2256.9,0.42618
2258.3,0.310238
2259.8,-1.094012
2261.3,-2.87548
2262.7,-1.024446
2264.2,-3.690446
2265.6,-0.301586
2267.1,-1.792542
2268.5,1.737016
2270,-0.448448
2271.4,-2.3878
2272.9,-1.3046
2274.3,0
2275.8,0.38774
2277.2,-2.754
2278.7,-1.427418
2280.1,0.42042
2281.6,-0.215612
2283,-1.09402
2284.5,-1.0969
2285.9,-1.643148
2287.4,-4.72126
2288.8,-2.96012
2290.2,-4.11702
2291.7,-0.93838
2293.1,-2.73764
2294.6,-0.533906
2296,-1.590514
2297.4,1.06178
2298.9,1.14338
2300.3,-2.18503
2301.7,0.202902
2303.2,-0.699616
2304.6,0.62066
2306,-3.91688
2307.5,0.498516
2308.9,0.718348
2310.3,-0.196696
2311.8,-2.031004
2313.2,-1.326222
2314.6,2.43694
2316.1,0.304364
2317.5,-1.443726
2318.9,2.00626
2320.3,-0.111054
2321.8,4.6886342
2323.2,8.85756
2324.6,9.19692
2326,15.3758
2327.5,21.3726
2328.9,30.9126
2330.3,30.9736
2331.7,26.3716
2333.2,14.76996
2334.6,9.82662
2336,5.179922
2337.4,1.953573
2338.8,1.110056
2340.2,1.8265472
2341.7,0.670974
2343.1,1.64034
2344.5,-0.3452294
2345.9,2.65992
2347.3,-1.74804
2348.7,0.996874
2350.1,-0.46424
2351.6,0.46971
2353,1.83296
2354.4,-0.395656
2355.8,-0.103422
2357.2,-2.079208
2358.6,-3.825032
2360,3.698682
2361.4,0.273812
2362.8,2.445795
2364.2,-0.341888
2365.6,-2.7224148
2367,4.142996
2368.4,3.786856
2369.8,3.788168
2371.2,3.3398
2372.6,-0.44892
2374,2.174376
2375.4,2.43868
2376.8,0.54232
2378.2,3.14816
2379.6,4.255702
2381,3.80534
2382.4,2.9396835
2383.8,1.138562
2385.2,2.02654
2386.6,0.904062
2388,1.324564
2389.4,0.9988466
2390.8,1.745
2392.1,-0.0524406
2393.5,2.73117074
2394.9,3.321686
2396.3,-2.38882
2397.7,2.095704
2399.1,1.7771802
2400.5,1.557158
2401.9,0.313836
2403.2,0.790908
2404.6,0.978646
2406,2.3227
2407.4,-0.328858
2408.8,1.18474
2410.2,0.68398
2411.5,0.3277782
2412.9,-1.4416446
2414.3,2.08692
2415.7,0
2417,-0.4932
2418.4,3.70442
2419.8,-2.35806
2421.2,1.919306
2422.5,-0.27534
2423.9,2.5746
2425.3,1.6577912
2426.7,3.01758
2428,0.269714
2429.4,-2.121916
2430.8,-0.199424
2432.1,1.59234
2433.5,2.24798
2434.9,2.4607266
2436.2,-1.47486
2437.6,-0.789218
2439,3.38224
2440.3,-0.321302
2441.7,-0.498724
2443.1,0.47874
2444.4,0.0763199999999999
2445.8,-0.8375
2447.2,-0.5804
2448.5,-0.0973354
2449.9,-0.013646
2451.2,0.881816
2452.6,-1.76374
2454,-0.581848
2455.3,-0.918244
2456.7,3.6392172
2458,0.295932
2459.4,-0.935194
2460.7,2.670778
2462.1,-2.153
2463.4,0.90646
2464.8,2.259188
2466.1,0.559538
2467.5,0.267846
2468.8,-0.3112302
2470.2,2.4753
2471.5,3.11214
2472.9,0.950237999999999
2474.2,-0.00376199999999969
2475.6,1.235876
2476.9,1.008586
2478.3,0.83032
2479.6,-1.35808
2481,1.91784
2482.3,1.884972
2483.6,1.92564
2485,0.529848
2486.3,-1.892578
2487.7,-1.690274
2489,0.535474
2490.3,-0.64812
2491.7,0.64372
2493,-1.9925078
2494.4,-0.727026
2495.7,-0.8337582
2497,-1.384064
2498.4,0.65062
2499.7,1.700748
2501,1.05172
2502.4,-0.23086
2503.7,-2.513776
2505,0.262284
2506.4,0.44606
2507.7,-0.69982
2509,-0.53644
2510.3,0.04224
2511.7,-1.70166
2513,-0.73494
2514.3,-3.01676
2515.6,-0.33432
2517,0.53614
2518.3,1.30746
2519.6,-1.906942
2520.9,0
2522.3,-1.01894
2523.6,-0.252738
2524.9,0.8125818
2526.2,-1.2643102
2527.5,-2.18282
2528.9,-1.97374
2530.2,0.75546
2531.5,-1.0855
2532.8,0.25546
2534.1,0.4027
2535.4,1.525822
2536.8,-0.854296
2538.1,-1.078408
2539.4,-2.1555
2540.7,0.295418
2542,1.5619
2543.3,1.2143462
2544.6,-0.15848
2545.9,0.375
2547.2,1.304324
2548.6,0.63879
2549.9,-0.734054
2551.2,1.0582738
2552.5,1.61376
2553.8,2.513912
2555.1,0.0476800000000001
2556.4,1.68835814
2557.7,0.72918
2559,2.46541
2560.3,2.169584
2561.6,1.671896
2562.9,-0.45419
2564.2,0.914742
2565.5,2.47996
2566.8,-0.792624
2568.1,0.633586
2569.4,1.519951
2570.7,2.923404
2572,0.914152
2573.3,1.652014
2574.6,2.446532
2575.9,1.743538
2577.1,3.35381
2578.4,1.152688
2579.7,1.547472
2581,4.396572
2582.3,7.42162
2583.6,3.551474
2584.9,2.41016
2586.2,3.478016
2587.5,0.23976
2588.7,1.01754
2590,2.50944
2591.3,2.829734
2592.6,2.574998
2593.9,3.496006
2595.2,3.01185
2596.4,3.64314
2597.7,1.1826
2599,3.403496
2600.3,4.60086
2601.6,5.46906
2602.8,2.40646
2604.1,4.11736
2605.4,3.4618
2606.7,1.603064
2608,3.34193
2609.2,4.30822
2610.5,5.59422
2611.8,3.39092
2613,1.367528
2614.3,3.601078
2615.6,1.3653234
2616.9,2.784232
2618.1,1.84898
2619.4,2.41969
2620.7,1.7874
2621.9,4.19496
2623.2,1.446816
2624.5,0.0861040000000003
2625.7,-0.0139300000000001
2627,0.84568
2628.3,1.93884
2629.5,0
2630.8,2.294636
2632.1,0.021794
2633.3,3.5634
2634.6,4.310592
2635.8,0.66368
2637.1,2.475858
2638.4,-0.926656
2639.6,1.53858
2640.9,-1.1052242
2642.1,1.745436
2643.4,-0.348062
2644.6,2.4724
2645.9,-0.252632
2647.2,-1.31676
2648.4,1.092354
2649.7,3.53607
2650.9,0.414438
2652.2,1.341618
2653.4,1.373658
2654.7,0.43218
2655.9,0.3614
2657.2,-0.291402
2658.4,1.32752
2659.7,1.796358
2660.9,-3.05902
2662.2,-1.816802
2663.4,-0.973972
2664.6,0.8887558
2665.9,0.7952
2667.1,0.641548
2668.4,-0.100616
2669.6,0.151282
2670.9,-0.765742
2672.1,0.744546
2673.3,0.579412
2674.6,-1.0646
2675.8,0.25892
2677.1,2.53766
2678.3,-0.00898000000000008
2679.5,1.631858
2680.8,-1.541716
2682,0.812278
2683.2,-1.118764
2684.5,0.508058
2685.7,1.449188
2686.9,-0.21694
2688.2,-0.00801999999999996
2689.4,-0.173054
2690.6,0.369376
2691.9,0.381556
2693.1,-0.80344
2694.3,1.07279
2695.5,0.2698618
2696.8,-1.94827
2698,0.90968
2699.2,1.550542
2700.4,-0.12718
2701.7,0.6794458
2702.9,-0.719878
2704.1,0.491796
2705.3,-1.07906
2706.6,0.0668199999999999
2707.8,0.842862
2709,1.779968
2710.2,1.6239
2711.4,0.26082
2712.6,-0.76814
2713.9,1.3367
2715.1,-0.144348
2716.3,0.043219
2717.5,0.3540712
2718.7,-0.472022
2719.9,1.294908
2721.2,0.8015
2722.4,-0.65285802
2723.6,-0.1632
2724.8,0.935226
2726,0
2727.2,-0.483342
2728.4,-0.81613
2729.6,-1.54988
2730.8,-1.575004
2732,-0.00870800000000012
2733.3,1.599182
2734.5,0.300014
2735.7,0.1764062
2736.9,-1.2563
2738.1,-0.2599564
2739.3,1.80326
2740.5,0.359022
2741.7,-0.531984
2742.9,-2.6991
2744.1,-1.54653
2745.3,-0.57286
2746.5,-0.250408
2747.7,-0.895726
2748.9,1.62732
2750.1,0.885662
2751.3,1.809894
2752.5,-0.0694622
2753.7,-0.70043652
2754.9,1.735898
2756,-2.553902
2757.2,-0.078104
2758.4,-0.326742
2759.6,-0.781192
2760.8,2.506785
2762,1.2173
2763.2,0.544026
2764.4,0.904748
2765.6,0.061734
2766.8,1.52366
2767.9,1.189946
2769.1,0.7281904
2770.3,1.201162
2771.5,1.0802152
2772.7,1.651636
2773.9,1.07796
2775.1,1.779966
2776.2,3.47988
2777.4,3.66002
2778.6,2.73998
2779.8,1.692646
2781,-0.656706
2782.1,3.02204
2783.3,-0.412056
2784.5,0.34494
2785.7,-0.18696
2786.8,1.03678
2788,2.012668
2789.2,1.492024
2790.4,1.811536
2791.5,3.04684
2792.7,0.524012
2793.9,4.1865
2795.1,-0.673378
2796.2,2.6076
2797.4,0.68911
2798.6,2.774144
2799.7,-0.048354
2800.9,-2.59644
2802.1,2.6749
2803.2,0.61238
2804.4,1.478138
2805.6,-0.6329
2806.7,-1.230782
2807.9,0.169756
2809.1,-2.06414
2810.2,1.08106
2811.4,1.177016
2812.6,0.84904
2813.7,3.19866
2814.9,1.454168
2816,2.19581
2817.2,2.7435414
2818.4,0
2819.5,0.152966
2820.7,3.59246
2821.8,-0.226504
2823,1.489466
2824.1,2.80926
2825.3,2.79002
2826.4,2.1193
2827.6,3.55338
2828.7,2.694482
2829.9,3.574258
2831,1.824192
2832.2,2.278872
2833.3,1.003684
2834.5,2.7381
2835.6,2.46744
2836.8,4.03358
2837.9,2.412432
2839.1,2.3015874
2840.2,1.5285742
2841.4,0.304554
2842.5,-1.079596
2843.7,1.592136
2844.8,-1.69342
2845.9,0.278784
2847.1,2.0927456
2848.2,0.9281188
2849.4,0.438616
2850.5,0.08387
2851.7,0.23602
2852.8,1.580498
2853.9,-1.44764
2855.1,-0.249482
2856.2,-0.0541
2857.3,-2.46587
2858.5,1.940036
2859.6,-2.15664
2860.7,-0.906816
2861.9,-3.42074
2863,-0.593594
2864.1,-0.780888
2865.3,-1.064728
2866.4,-1.951314
2867.5,-1.13836
2868.7,-1.5731154
2869.8,0.13376
2870.9,0.3290914
2872,0.121026
2873.2,0.40495
2874.3,-2.01956
2875.4,0.9557
2876.5,-1.31958
2877.7,0.394302
2878.8,0.5456
2879.9,-0.0499599999999999
2881,0.0471200000000001
2882.2,-0.19244
2883.3,-0.397954
2884.4,0.34364
2885.5,0.1856756
2886.6,-1.27264
2887.8,-2.892838
2888.9,-2.22086336
2890,1.09757
2891.1,1.659044
2892.2,3.4767682
2893.3,1.501694
2894.4,1.745134
2895.6,1.63532
2896.7,3.0028
2897.8,4.66976
2898.9,5.33513
2900,2.763006
2901.1,3.8019
2902.2,2.18646
2903.3,4.48088
2904.4,5.57828
2905.6,5.72742
2906.7,5.5213
2907.8,8.06802
2908.9,8.37072
2910,11.33804
2911.1,7.49866
2912.2,10.57598
2913.3,11.23232
2914.4,14.2628
2915.5,12.571
2916.6,14.4186
2917.7,16.3786
2918.8,11.85868
2919.9,14.6416
2921,15.5872
2922.1,17.5126
2923.2,18.334
2924.3,18.9314
2925.4,19.1236
2926.5,20.7466
2927.6,24.5822
2928.7,21.8552
2929.8,22.3636
2930.8,24.8172
2931.9,23.7818
2933,25.9318
2934.1,27.0628
2935.2,25.9674
2936.3,27.467
2937.4,26.9148
2938.5,27.5726
2939.6,26.7066
2940.6,28.4772
2941.7,27.934
2942.8,31.677
2943.9,28.9942
2945,27.9064
2946.1,30.4136
2947.2,31.9698
2948.2,30.7542
2949.3,30.8886
2950.4,29.5488
2951.5,26.926
2952.6,29.6352
2953.6,28.2572
2954.7,27.8026
2955.8,26.2602
2956.9,23.1182
2957.9,26.2428
2959,24.1028
2960.1,23.3514
2961.2,23.1806
2962.2,22.1798
2963.3,18.6112
2964.4,21.8986
2965.5,17.0042
2966.5,19.23704
2967.6,19.7724
2968.7,13.868
2969.7,15.178
2970.8,14.23286
2971.9,17.4246
2973,16.1502
2974,17.2332
2975.1,18.4358
2976.2,15.9848
2977.2,16.6614
2978.3,16.3828
2979.3,12.2674
2980.4,18.046
2981.5,16.19216
2982.5,14.4172
2983.6,15.5064
2984.7,15.28784
2985.7,16.978
2986.8,11.9972
2987.8,15.2652
2988.9,17.8508
2989.9,16.682
2991,18.7616
2992.1,18.6066
2993.1,18.3576
2994.2,18.0946
2995.2,17.28984
2996.3,17.6256
2997.3,18.9948
2998.4,19.6738
2999.4,19.3474
3000.5,22.9958
3001.5,20.1388
3002.6,19.6228
3003.6,21.7414
3004.7,18.1288
3005.7,23.7252
3006.8,23.1314
3007.8,23.991
3008.9,25.056
3009.9,25.0916
3011,28.6318
3012,26.287
3013,28.5096
3014.1,29.378
3015.1,28.7686
3016.2,30.5494
3017.2,30.9398
3018.2,32.887
3019.3,31.8292
3020.3,32.801
3021.4,31.9662
3022.4,34.0478
3023.4,36.4098
3024.5,36.7516
3025.5,36.4964
3026.5,36.1718
3027.6,40.4314
3028.6,41.411
3029.6,43.6916
3030.7,41.2546
3031.7,42.939
3032.7,43.9278
3033.8,41.701
3034.8,45.299
3035.8,48.9728
3036.9,46.675
3037.9,44.806
3038.9,50.6722
3039.9,50.5328
3041,52.3914
3042,55.419
3043,54.2316
3044,52.9842
3045.1,55.2728
3046.1,56.2564
3047.1,57.6926
3048.1,60.6954
3049.2,60.2256
3050.2,59.3344
3051.2,63.7266
3052.2,65.9902
3053.2,64.974
3054.3,66.0878
3055.3,65.3354
3056.3,63.5242
3057.3,68.0558
3058.3,67.5172
3059.3,68.7684
3060.3,73.2384
3061.4,74.919
3062.4,76.4482
3063.4,76.1976
3064.4,76.8248
3065.4,80.4036
3066.4,81.8052
3067.4,83.112
3068.4,79.5476
3069.5,80.9928
3070.5,82.3908
3071.5,86.419
3072.5,87.5406
3073.5,85.3478
3074.5,90.52
3075.5,91.0298
3076.5,92.7014
3077.5,93.1902
3078.5,95.5996
3079.5,99.8064
3080.5,96.0932
3081.5,98.5576
3082.5,97.43
3083.5,103.078
3084.5,105.2166
3085.5,103.6754
3086.5,105.6838
3087.5,107.034
3088.5,108.288
3089.5,109.37
3090.5,106.8248
3091.5,114.222
3092.5,113.858
3093.5,114.868
3094.5,114.566
3095.5,121.74
3096.4,121.856
3097.4,120.222
3098.4,122.694
3099.4,121.14
3100.4,125.614
3101.4,126.556
3102.4,132.066
3103.4,135.77
3104.4,130.542
3105.3,137.41
3106.3,138.878
3107.3,140.294
3108.3,141.494
3109.3,142.762
3110.3,144.562
3111.3,142.354
3112.2,145.46
3113.2,151.432
3114.2,152.162
3115.2,156.082
3116.2,155.472
3117.1,154.762
3118.1,156.726
3119.1,159.146
3120.1,160.568
3121,162.224
3122,163.674
3123,168.9
3124,169.654
3124.9,171.722
3125.9,168.686
3126.9,174.146
3127.9,176.654
3128.8,179.584
3129.8,178.76
3130.8,181.504
3131.7,179.122
3132.7,188.012
3133.7,184.744
3134.7,185.702
3135.6,187.498
3136.6,190.296
3137.6,191.352
3138.5,189.828
3139.5,190.46
3140.4,196.324
3141.4,196.85
3142.4,194.818
3143.3,199.79
3144.3,199.054
3145.3,201.352
3146.2,198.586
3147.2,202.812
3148.1,205.178
3149.1,207.934
3150.1,208.846
3151,208.73
3152,209.142
3152.9,209.488
3153.9,210.124
3154.8,210.664
3155.8,211.056
3156.7,211.586
3157.7,215.23
3158.6,217.436
3159.6,211.77
3160.6,217.502
3161.5,220.728
3162.5,217.692
3163.4,218.498
3164.4,223.242
3165.3,218.37
3166.2,221.67
3167.2,222.556
3168.1,224.71
3169.1,219.324
3170,225.928
3171,226.728
3171.9,227.504
3172.9,226.438
3173.8,229.594
3174.7,227.716
3175.7,228.46
3176.6,225.75
3177.6,228.954
3178.5,229.01
3179.5,230.084
3180.4,229.164
3181.3,230.824
3182.3,229.934
3183.2,229.882
3184.1,230.018
3185.1,233.774
3186,228.358
3186.9,235.054
3187.9,233.07
3188.8,232.598
3189.7,230.456
3190.7,231.228
3191.6,232.018
3192.5,231.902
3193.5,234.018
3194.4,233.224
3195.3,233.528
3196.3,231.584
3197.2,230.21
3198.1,229.194
3199,229.428
3200,228.828
3200.9,225.236
3201.8,228.092
3202.7,230.334
3203.7,229.204
3204.6,224.476
3205.5,225.588
3206.4,222.88
3207.3,221.3
3208.3,221.506
3209.2,219.058
3210.1,218.612
3211,213.622
3211.9,214.632
3212.9,211.6
3213.8,211.48
3214.7,209.276
3215.6,209.738
3216.5,206.916
3217.4,205.358
3218.4,203.852
3219.3,201.96
3220.2,199.514
3221.1,198.052
3222,194.06
3222.9,193.266
3223.8,190.418
3224.7,187.79
3225.6,184.65
3226.6,182.59
3227.5,184.514
3228.4,180.47
3229.3,176.25
3230.2,177.292
3231.1,173.406
3232,169.962
3232.9,166.088
3233.8,165.562
3234.7,158.496
3235.6,157.75
3236.5,151.67
3237.4,151.952
3238.3,148.594
3239.2,143.738
3240.1,138.67
3241,139.378
3241.9,130.628
3242.8,129.516
3243.7,123.144
3244.6,120.252
3245.5,112.622
3246.4,105.434
3247.3,102.0264
3248.2,92.8728
3249.1,86.46
3250,80.0028
3250.9,69.7352
3251.8,62.0454
3252.7,51.79
3253.5,37.5992
3254.4,23.3298
3255.3,10.82822
3256.2,-7.4911
