250.34,-4.00048
252.57,-6.51464
254.8,0
257.03,-3.54382
259.26,-1.631608
261.48,0.342056
263.71,2.28626
265.94,-3.30966
268.16,0.63071
270.39,-1.369498
272.61,-0.328216
274.84,-2.68998
277.06,0.98915
279.28,3.10258
281.51,0.461754
283.73,-1.418178
285.95,6.34006
288.17,6.26806
290.39,4.18868
292.61,1.377746
294.83,-1.60796
297.05,3.49816
299.27,7.371344
301.48,13.146
303.7,13.75674
305.91,11.250618
308.13,5.05488
310.35,5.62668
312.56,11.594
314.77,16.03906
316.99,3.01678
319.2,4.39712
321.41,8.322962
323.62,3.548868
325.83,-0.08038546
328.04,-0.1492
330.25,4.24476
332.46,4.710268
334.67,4.116868
336.88,9.35638
339.08,5.733092
341.29,8.42656
343.5,10.54426
345.7,27.515
347.91,48.2024
350.11,104.145
352.31,206.66
354.52,282.778
356.72,255.988
358.92,168.234
361.12,98.7356
363.32,61.5242
365.52,45.1402
367.72,40.8374
369.92,27.4002
372.12,33.8722
374.32,52.8
376.51,89.4342
378.71,112.07
380.9,99.2678
383.1,64.108
385.29,31.1096
387.49,17.4946
389.68,14.0524
391.87,5.913934
394.07,-1.87486
396.26,1.61176
398.45,3.82178
400.64,11.09426
402.83,16.28122
405.02,22.0636
407.21,41.9684
409.39,58.3684
411.58,135.522
413.77,352.974
415.95,634.71
418.14,700
420.32,481.254
422.51,244.912
424.69,126.79
426.87,92.1084
429.06,89.8846
431.24,78.7416
433.42,59.9404
435.6,34.4132
437.78,14.64322
439.96,6.76082
442.14,-0.1234348
444.31,6.603818
446.49,21.162
448.67,28.998
450.84,31.4734
453.02,13.84896
455.19,2.8257138
457.37,-2.331026
459.54,-4.243
461.71,-6.35744
463.89,-6.87562
466.06,-5.435482
468.23,-4.05485
470.4,-8.419104
472.57,-11.23502
474.74,-6.54938
476.91,-7.916224
479.07,-4.64234
481.24,0.33814
483.41,6.28286
485.57,3.973438
487.74,6.74419
489.9,6.7449
492.07,3.34756
494.23,-1.6845488
496.4,-3.26162
498.56,-2.56162
500.72,-9.89166
502.88,-7.54578
505.04,-8.1236
507.2,-13.27328
509.36,-6.183734
511.52,-8.08442
513.68,-5.483528
515.83,-5.14586
517.99,1.106716
520.14,-11.12332
522.3,-11.22106
524.45,-3.8173
526.61,-6.9711
528.76,-4.176978
530.91,0.512818
533.07,2.146956
535.22,4.72044
537.37,5.0843206
539.52,3.42666
541.67,5.6383
543.82,-1.761716
545.97,7.09508
548.11,2.24920372
550.26,-0.3347586
552.41,0.701574
554.55,0.24372
556.7,0.4496
558.84,1.99993
560.98,9.4266
563.13,6.92928
565.27,12.97402
567.41,13.29498
569.55,28.359
571.69,49.5124
573.83,99.372
575.97,149.448
578.11,168.9
580.25,181.152
582.39,273.486
584.52,495.082
586.66,702.51
588.79,684.898
590.93,467.72
593.06,255.37
595.19,134.9028
597.33,70.5234
599.46,43.8238
601.59,26.7468
603.72,16.60834
605.85,10.6285
607.98,-0.0608004
610.11,7.4833
612.24,0.522678
614.36,10.28502
616.49,0.936626
618.62,-2.68276
620.74,1.729256
622.87,0.8542
624.99,0.1725092
627.11,-1.128266
629.24,-1.397174
631.36,-8.18916
633.48,-0.709274
635.6,1.6499
637.72,4.181092
639.84,0.595498
641.96,-0.014962494
644.08,0.752082
646.2,-2.885926
648.31,-2.116558
650.43,-5.90794
652.54,-2.65798
654.66,-7.035174
656.77,-1.522449
658.89,-4.69962
661,-5.0501
663.11,1.39176
665.22,-5.33276
667.33,-3.835844
669.44,-12.071978
671.55,-3.738334
673.66,-3.80586
675.77,-4.50556
677.88,-1.86514
679.98,5.0647
682.09,11.00986
684.2,13.43596
686.3,21.47174
688.4,26.1018
690.51,32.7146
692.61,38.6448
694.71,45.5246
696.81,44.7392
698.92,44.8548
701.02,54.9358
703.11,63.3042
705.21,64.8248
707.31,65.1206
709.41,67.7992
711.51,72.3884
713.6,64.1752
715.7,61.9634
717.79,55.814
719.89,51.1666
721.98,47.601
724.07,34.1078
726.16,33.871
728.25,28.085
730.35,29.9782
732.44,33.459
734.52,36.156
736.61,50.2988
738.7,64.2654
740.79,89.1778
742.87,121.218
744.96,161.964
747.05,213.12
749.13,239.33
751.21,243.932
753.3,212.038
755.38,163.258
757.46,117.182
759.54,79.4978
761.62,56.4426
763.7,35.3896
765.78,25.8584
767.86,15.6186
769.94,7.52746
772.01,4.1725
774.09,-0.9009512
776.17,2.501484
778.24,-2.85896
780.32,-1.827
782.39,-1.3793
784.46,2.21642
786.53,8.77276
788.61,9.53454
790.68,8.44592
792.75,11.16952
794.82,10.697418
796.89,10.2009
798.95,7.53384
801.02,6.312826
803.09,4.705946
805.15,8.59296
807.22,14.9655
809.28,35.4096
811.35,80.388
813.41,120.897
815.47,124.9422
817.53,84.2994
819.6,43.3926
821.66,26.6322
823.72,11.84184
825.78,9.32247
827.83,10.7045918
829.89,4.155404
831.95,8.25988
834,6.28122
836.06,5.76622
838.12,5.48762
840.17,7.49348
842.22,10.56222
844.28,4.49886
846.33,6.65154
848.38,6.437058
850.43,4.21194
852.48,11.66204
854.53,3.477964
856.58,7.6636
858.63,10.57364
860.67,10.63766
862.72,8.6785
864.77,4.62132
866.81,6.9904
868.86,3.36012
870.9,2.43348
872.94,4.86356
874.98,-1.328366
877.03,1.656746
879.07,0.439366
881.11,-3.464678
883.15,1.011772
885.19,1.746304
887.22,5.18294
889.26,4.344222
891.3,1.70186
893.33,2.550386
895.37,1.12318
897.4,-2.4562314
899.44,0
901.47,-2.43236
903.5,-0.897548
905.54,2.236704
907.57,4.2959
909.6,5.23032
911.63,-1.01188
913.66,-2.133884
915.68,3.889132
917.71,-1.08198
919.74,-4.234518
921.76,-2.4523
923.79,-3.70606
925.82,3.3005938
927.84,1.441528
929.86,-0.071546
931.89,0.991994
933.91,2.27964
935.93,3.026512
937.95,3.66962
939.97,-1.174926
941.99,-0.134188
944.01,-0.77936
946.02,-0.210678
948.04,-4.07594
950.06,-4.297146
952.07,-4.58574
954.09,1.93396
956.1,1.84412
958.12,4.080826
960.13,5.012334
962.14,0.500366
964.15,-1.15973
966.16,-0.748552
968.17,-4.75402
970.18,0.467336
972.19,-1.58744
974.2,-1.1009782
976.2,1.02922
978.21,2.74344
980.22,4.45912
982.22,2.75408
984.22,2.6562
986.23,6.59338
988.23,0.46686
990.23,2.07394
992.23,1.466656
994.24,1.10042
996.23,3.197744
998.23,8.37606
1000.2,8.47116
1002.2,11.31398
1004.2,14.47112
1006.2,12.16842
1008.2,14.8493
1010.2,12.84796
1012.2,15.49544
1014.2,16.4932
1016.2,17.09614
1018.2,15.0288
1020.2,16.5552
1022.2,25.512
1024.2,27.645
1026.1,32.6698
1028.1,33.1798
1030.1,51.386
1032.1,85.0916
1034.1,115.9064
1036.1,114.7212
1038.1,78.987
1040.1,52.01
1042,42.592
1044,36.012
1046,35.125
1048,33.5024
1050,33.9912
1051.9,37.2432
1053.9,35.4354
1055.9,28.3282
1057.9,25.954
1059.9,29.5224
1061.8,28.3724
1063.8,25.0784
1065.8,24.7152
1067.8,23.4512
1069.7,24.0946
1071.7,21.7522
1073.7,19.7402
1075.6,19.5924
1077.6,18.1358
1079.6,17.139
1081.5,14.4158
1083.5,11.54468
1085.5,8.62702
1087.5,9.24008
1089.4,5.4308
1091.4,6.53342
1093.3,5.54824
1095.3,4.80254
1097.3,4.95608
1099.2,6.23164
1101.2,8.1263
1103.2,10.13268
1105.1,3.295034
1107.1,2.81426
1109,3.34296
1111,-0.2153796
1113,-0.8675
1114.9,2.3244
1116.9,0.0346800000000002
1118.8,1.05348
1120.8,5.661968
1122.7,6.375786
1124.7,7.45206
1126.6,2.49456
1128.6,7.36558
1130.5,8.08172
1132.5,8.81752
1134.4,8.525236
1136.4,11.09446
1138.3,14.6316
1140.3,11.8849
1142.2,13.5363
1144.2,11.74794
1146.1,17.8636
1148.1,14.1428
1150,19.4076
1151.9,17.8684
1153.9,19.4478
1155.8,17.5338
1157.8,20.4992
1159.7,19.5238
1161.6,23.3916
1163.6,27.654
1165.5,29.6044
1167.5,28.5264
1169.4,34.7694
1171.3,38.6726
1173.3,41.252
1175.2,38.3144
1177.1,45.2676
1179.1,44.2096
1181,46.5384
1182.9,49.714
1184.9,54.0536
1186.8,57.7766
1188.7,65.7412
1190.6,71.6854
1192.6,76.9338
1194.5,83.5522
1196.4,85.1872
1198.4,86.4818
1200.3,94.7826
1202.2,101.4362
1204.1,103.3934
1206,106.572
1208,112.422
1209.9,117.528
1211.8,119.312
1213.7,121.224
1215.6,126.822
1217.6,127.382
1219.5,127.634
1221.4,119.316
1223.3,123.492
1225.2,121.696
1227.1,117.178
1229.1,114.172
1231,111.494
1232.9,108.96
1234.8,108.198
1236.7,106.4258
1238.6,104.2028
1240.5,100.7144
1242.4,101.0294
1244.3,103.2614
1246.2,101.8334
1248.1,98.7168
1250.1,100.7698
1252,95.3332
1253.9,97.958
1255.8,99.7734
1257.7,106.44
1259.6,114.504
1261.5,116.902
1263.4,126.208
1265.3,139.19
1267.2,154.314
1269.1,167.038
1271,182.538
1272.9,188.248
1274.8,197.192
1276.6,194.606
1278.5,187.814
1280.4,177.88
1282.3,172.734
1284.2,167.718
1286.1,150.888
1288,129.486
1289.9,110.866
1291.8,100.6304
1293.7,86.7152
1295.6,81.6198
1297.4,75.6494
1299.3,71.4664
1301.2,67.4852
1303.1,67.45
1305,65.3926
1306.9,62.899
1308.7,64.6428
1310.6,64.0572
1312.5,59.3998
1314.4,60.0856
1316.3,56.418
1318.1,55.073
1320,55.2226
1321.9,53.1438
1323.8,55.4468
1325.7,56.2042
1327.5,58.5012
1329.4,58.3432
1331.3,56.5946
1333.1,59.6966
1335,59.8566
1336.9,64.9494
1338.8,62.1688
1340.6,67.944
1342.5,71.511
1344.4,76.0648
1346.2,84.326
1348.1,92.1952
1350,99.0518
1351.8,105.4068
1353.7,109.744
1355.6,107.666
1357.4,110.92
1359.3,114.664
1361.1,118.028
1363,124.836
1364.9,141.522
1366.7,155.708
1368.6,177.396
1370.4,204.628
1372.3,241.696
1374.2,292.688
1376,359.422
1377.9,451.612
1379.7,540.306
1381.6,608.198
1383.4,629.86
1385.3,603.626
1387.1,537.778
1389,453.914
1390.8,369.274
1392.7,310.024
1394.5,275.98
1396.4,253.222
1398.2,246.114
1400.1,233.01
1401.9,221.3
1403.8,198.038
1405.6,172.798
1407.4,150.76
1409.3,129.592
1411.1,109.758
1413,89.8116
1414.8,73.96
1416.6,66.7658
1418.5,57.3908
1420.3,48.2904
1422.2,44.9934
1424,38.2152
1425.8,30.038
1427.7,29.2488
1429.5,26.3454
1431.3,20.9008
1433.2,15.7276
1435,12.7189
1436.8,13.42708
1438.7,9.91254
1440.5,12.86852
1442.3,7.06724
1444.1,7.40934
1446,5.16108
1447.8,3.4243
1449.6,2.57608
1451.4,4.123794
1453.3,0.48468
1455.1,-0.385836
1456.9,0.212082
1458.7,-1.3177462
1460.6,-0.465008
1462.4,-2.00868
1464.2,-4.37878
1466,-1.757
1467.8,-0.52332
1469.6,-1.86604
1471.5,-3.326564
1473.3,-3.78778
1475.1,-7.23958
1476.9,-5.0347
1478.7,-7.47828
1480.5,-7.8403
1482.4,-5.528206
1484.2,-5.42384
1486,-4.539988
1487.8,-7.05366
1489.6,-6.55436
1491.4,-4.758022
1493.2,-7.5509
1495,-7.2081
1496.8,-6.5772
1498.6,-7.91498
1500.4,-3.276246
1502.2,-4.50644
1504,-4.6981
1505.8,-4.96848
1507.6,-3.4825
1509.4,-1.949446
1511.2,-5.16188
1513,-2.190568
1514.8,-3.014668
1516.6,-2.93894
1518.4,-2.255504
1520.2,-3.07304
1522,-3.3573984
1523.8,-3.712026
1525.6,-4.226038
1527.4,-0.517946
1529.2,-1.3798
1531,-3.72372
1532.8,-1.643728
1534.6,-0.72528
1536.4,0.799178
1538.2,-0.4374896
1539.9,3.763814
1541.7,3.232
1543.5,3.583144
1545.3,8.3044884
1547.1,10.24636
1548.9,14.88532
1550.7,21.0658
1552.4,25.7772
1554.2,34.3776
1556,39.2536
1557.8,36.4226
1559.6,30.0878
1561.3,31.9394
1563.1,34.1446
1564.9,36.192
1566.7,37.4638
1568.4,41.4468
1570.2,48.6588
1572,54.1528
1573.8,59.614
1575.5,60.8852
1577.3,69.265
1579.1,69.2458
1580.9,79.0578
1582.6,81.8094
1584.4,90.634
1586.2,96.1878
1587.9,102.1804
1589.7,107.3086
1591.5,111.542
1593.2,120.15
1595,126.984
1596.8,135.428
1598.5,137.754
1600.3,152.046
1602,160.894
1603.8,165.944
1605.6,175.806
1607.3,188.124
1609.1,195.96
1610.8,205.782
1612.6,208.038
1614.4,217.9
1616.1,226.512
1617.9,231.542
1619.6,239.784
1621.4,244.186
1623.1,253.188
1624.9,258.192
1626.6,267.426
1628.4,269.96
1630.1,280.482
1631.9,281.54
1633.6,283.69
1635.4,291.556
1637.1,292.698
1638.9,292.826
1640.6,293.114
1642.4,295.268
1644.1,294.256
1645.8,295.362
1647.6,297.188
1649.3,298.06
1651.1,293.074
1652.8,293.038
1654.6,289.784
1656.3,287.534
1658,286.626
1659.8,279.856
1661.5,280.742
1663.2,276.08
1665,271.888
1666.7,269.078
1668.4,265.55
1670.2,263.464
1671.9,260.438
1673.6,256.93
1675.4,253.924
1677.1,249.154
1678.8,251.174
1680.5,244.16
1682.3,239.694
1684,239.6
1685.7,230.824
1687.5,239.12
1689.2,238.688
1690.9,239.69
1692.6,236.642
1694.3,238.008
1696.1,245.016
1697.8,242.232
1699.5,248.07
1701.2,250.724
1702.9,257.204
1704.7,253.612
1706.4,259.642
1708.1,258.798
1709.8,262.132
1711.5,261.598
1713.2,262.128
1714.9,261.606
1716.7,256.338
1718.4,253.41
1720.1,246.856
1721.8,242.604
1723.5,236.264
1725.2,229.54
1726.9,223.49
1728.6,219.436
1730.3,210.304
1732,205.284
1733.7,193.896
1735.4,183.192
1737.1,174.626
1738.8,162.602
1740.6,147.482
1742.3,134.536
1744,124.568
1745.7,109.418
1747.3,99.2878
1749,86.8792
1750.7,76.8426
1752.4,72.4864
1754.1,60.9324
1755.8,51.2138
1757.5,46.5962
1759.2,39.106
1760.9,36.9
1762.6,31.1644
1764.3,25.7684
1766,23.7098
1767.7,20.8504
1769.4,21.8998
1771.1,16.8166
1772.7,13.76278
1774.4,15.8292
1776.1,12.10006
1777.8,9.35556
1779.5,6.170532
1781.2,7.4667
1782.8,4.597918
1784.5,5.28888
1786.2,5.062418
1787.9,-3.310948
1789.6,2.709908
1791.2,1.26644
1792.9,-0.16956
1794.6,-0.12806
1796.3,0.168268
1798,-0.64002
1799.6,1.72628
1801.3,-2.006266
1803,-2.181258
1804.7,-0.864066
1806.3,-3.44974
1808,-0.805436
1809.7,-3.6841162
1811.3,-1.839548
1813,-1.00624
1814.7,-2.266504
1816.3,1.496266
1818,-2.539082
1819.7,0.14139
1821.3,0.883784
1823,-3.106364
1824.7,-0.199982
1826.3,-3.9459
1828,-3.670302
1829.7,0.477038
1831.3,1.23518
1833,-1.591418
1834.6,0.8245
1836.3,1.05418
1838,1.80214
1839.6,0.784236
1841.3,0.4953
1842.9,0.75502
1844.6,0.54794
1846.2,-1.775186
1847.9,-1.749702
1849.5,0.5502578
1851.2,3.18012
1852.8,3.20942
1854.5,3.72426
1856.1,5.49877
1857.8,4.92472
1859.4,3.30372
1861.1,3.889522
1862.7,0.97438
1864.4,2.452666
1866,5.89354
1867.7,2.64715
1869.3,7.62944
1871,1.690866
1872.6,6.18914
1874.2,5.053786
1875.9,2.795114
1877.5,3.932326
1879.2,0
1880.8,-0.602048
1882.4,-1.74678
1884.1,2.242434
1885.7,3.898872
1887.3,2.7878
1889,0.17288
1890.6,0.223536
1892.2,0.44691
1893.9,-1.6971366
1895.5,-6.21928
1897.1,0.459408
1898.8,0.248242
1900.4,2.63908
1902,0.000169999999999959
1903.7,-0.48846
1905.3,-2.155126
1906.9,-1.14203
1908.5,1.65952
1910.2,-2.14364
1911.8,-0.880036
1913.4,0.39598
1915,-0.76696
1916.7,-0.12378
1918.3,-0.4132322
1919.9,1.518408
1921.5,0.95685
1923.1,0.1053496
1924.8,0.419976
1926.4,0.19832
1928,-2.660956
1929.6,0.4781768
1931.2,2.27808
1932.8,3.23714
1934.4,1.473202
1936.1,0.95748
1937.7,0.6925164
1939.3,0.975298
1940.9,1.28154
1942.5,-0.213976
1944.1,-0.00507200000000001
1945.7,-2.80452
1947.3,1.72172
1948.9,0.6201428
1950.5,-0.243984
1952.1,0.01099692
1953.8,-0.141568
1955.4,-1.248184
1957,1.96108
1958.6,-2.3844408
1960.2,-1.3169
1961.8,2.4425
1963.4,-0.21656
1965,-1.90128
1966.6,-1.174932
1968.2,2.53929
1969.8,1.965124
1971.4,0.96862
1973,-0.76062
1974.5,-0.532184
1976.1,-0.768514
1977.7,-0.51189
1979.3,-0.106896
1980.9,-2.197188
1982.5,-1.730452
1984.1,0.248146
1985.7,1.05045
1987.3,2.884708
1988.9,0.93824
1990.5,-0.659002
1992,2.9818818
1993.6,0.0230099999999999
1995.2,-0.289274
1996.8,0.75252
1998.4,-0.3696
2000,-3.07044
2001.6,1.68496
2003.1,-0.14339
2004.7,-0.0874159999999998
2006.3,0.56308
2007.9,1.09348
2009.5,3.449736
2011,3.22794
2012.6,1.52948
2014.2,0.3219476
2015.8,2.6468
2017.3,0.54902
2018.9,-0.714954
2020.5,3.80382
2022.1,3.00422
2023.6,5.138078
2025.2,3.11514
2026.8,3.680572
2028.3,-0.41394692
2029.9,4.01124
2031.5,1.69754
2033,6.79778
2034.6,1.4731326
2036.2,-1.348642
2037.7,3.72517
2039.3,3.1185
2040.9,4.5071
2042.4,3.875384
2044,0.8305732
2045.6,2.88367
2047.1,2.07352
2048.7,3.89779
2050.2,1.8138664
2051.8,3.425516
2053.4,2.38344
2054.9,2.381332
2056.5,-0.82587
2058,0.822914
2059.6,-1.565442
2061.1,3.1237
2062.7,1.970452
2064.2,2.1400896
2065.8,3.90208
2067.3,0.56416
2068.9,4.078404
2070.4,1.32664
2072,1.71876
2073.5,-0.7585
2075.1,0.021616
2076.6,0.870918
2078.2,-0.7138
2079.7,1.56636
2081.3,5.4852
2082.8,4.71236
2084.4,3.955908
2085.9,1.571736
2087.4,4.47086
2089,3.70802
2090.5,3.74534
2092.1,4.86044
2093.6,4.7173
2095.1,4.84466
2096.7,2.648658
2098.2,4.646342
2099.7,-0.38066
2101.3,5.5803
2102.8,4.69767
2104.3,2.052386
2105.9,7.93166
2107.4,5.8555232
2108.9,6.93328
2110.5,4.90336
2112,4.69688
2113.5,6.32746
2115.1,6.20276
2116.6,3.827442
2118.1,3.833964
2119.6,6.695384
2121.2,5.94406
2122.7,6.38982
2124.2,1.632174
2125.7,6.86262
2127.3,5.17964
2128.8,7.15514
2130.3,14.29918
2131.8,18.6762
2133.3,30.2706
2134.9,49.587
2136.4,69.3638
2137.9,83.91
2139.4,97.57
2140.9,99.3906
2142.4,84.2314
2144,61.5152
2145.5,37.8172
2147,27.529
2148.5,14.6487
2150,11.28196
2151.5,9.66008
2153,7.28964
2154.5,5.46844
2156,3.49349
2157.6,1.746108
2159.1,1.506612
2160.6,0.810134
2162.1,-0.49594
2163.6,2.47168
2165.1,-2.06912
2166.6,0.399168
2168.1,-3.718282
2169.6,-6.37242
2171.1,-1.4348232
2172.6,2.572982
2174.1,-1.14212
2175.6,-0.35518
2177.1,-2.27377
2178.6,-0.860792
2180.1,-1.3861658
2181.6,-2.151826
2183.1,-4.69298
2184.6,-6.37076
2186.1,-4.064982
2187.5,-2.61996
2189,-2.85062
2190.5,-3.447798
2192,-0.816864
2193.5,-3.83282
2195,-4.461972
2196.5,-3.00296
2198,-3.412084
2199.5,-4.74654
2201,-2.52628
2202.4,-4.347522
2203.9,-1.440154
2205.4,-1.604874
2206.9,-5.63396
2208.4,-1.70488
2209.9,-1.830758
2211.3,-3.97746
2212.8,-4.9663
2214.3,-3.88464
2215.8,-4.8114
2217.3,-3.477558
2218.7,-4.79838
2220.2,-3.075066
2221.7,-1.60554
2223.2,-0.7450204
2224.6,-1.146124
2226.1,-2.8167
2227.6,-0.9318362
2229.1,-1.8478188
2230.5,-2.751218
2232,-3.44636
2233.5,-3.12174
2234.9,-2.90284
2236.4,-1.818048
2237.9,-1.65518
2239.3,-1.56568
2240.8,-0.886816
2242.3,-1.6584
2243.7,-0.575838
2245.2,-1.1015
2246.7,-2.587136
2248.1,-2.747086
2249.6,-0.987
2251.1,-2.221516
2252.5,-0.2944874
2254,-4.08908
2255.4,-2.610152
2256.9,-0.781048
2258.3,-2.78287
2259.8,0.024128
2261.3,-4.035707
2262.7,0.383826
2264.2,0.912248
2265.6,-2.92989
2267.1,-1.87152
2268.5,-1.69766
2270,-1.33782
2271.4,-2.76436
2272.9,-2.04507
2274.3,0
2275.8,-0.659072
2277.2,2.45176
2278.7,-1.510792
2280.1,-1.833194
2281.6,-2.916774
2283,-1.446078
2284.5,-1.163662
2285.9,-3.150052
2287.4,-1.21558
2288.8,0.00300980000000006
2290.2,0.71714
2291.7,-1.611666
2293.1,0.961178
2294.6,1.319114
2296,1.504816
2297.4,-1.31039
2298.9,-1.3866216
2300.3,-2.666336
2301.7,0.14633
2303.2,-0.27782
2304.6,-2.128
2306,-2.1835
2307.5,0.52035
2308.9,-1.151522
2310.3,0.427466
2311.8,-2.498734
2313.2,0.794972
2314.6,-0.708994
2316.1,-0.89834
2317.5,-1.791676
2318.9,0.78965
2320.3,4.50748
2321.8,0.849472
2323.2,5.813526
2324.6,6.90992
2326,14.7416
2327.5,24.8352
2328.9,26.366
2330.3,28.3898
2331.7,20.4802
2333.2,13.4276
2334.6,9.24584
2336,4.86868
2337.4,3.7983846
2338.8,1.5333258
2340.2,2.08161
2341.7,2.13326
2343.1,1.30236
2344.5,1.907707
2345.9,4.442124
2347.3,-0.87014
2348.7,2.973772
2350.1,-3.361672
2351.6,0.367792
2353,2.09372
2354.4,-0.69248
2355.8,0.583714
2357.2,-0.11964
2358.6,-6.14638
2360,4.2870536
2361.4,1.41578
2362.8,0.31204
2364.2,-0.178998
2365.6,2.6370284
2367,-0.0394540000000001
2368.4,2.043548
2369.8,0.4484
2371.2,2.99844
2372.6,2.050568
2374,2.1170012
2375.4,1.640572
2376.8,0.86898
2378.2,1.15293
2379.6,1.510546
2381,4.359946
2382.4,3.9117
2383.8,2.7796
2385.2,3.23268
2386.6,0.78614
2388,1.14726
2389.4,0.875172
2390.8,1.241794
2392.1,0.793854
2393.5,1.7246506
2394.9,0.32046
2396.3,1.4763972
2397.7,2.859644
2399.1,1.83062
2400.5,1.843482
2401.9,0.086244
2403.2,1.655932
2404.6,2.577772
2406,2.46664
2407.4,-0.0748799999999998
2408.8,0.83256
2410.2,2.36826
2411.5,0.129122
2412.9,-0.345466
2414.3,0.639142
2415.7,0
2417,2.53886
2418.4,4.805232
2419.8,2.64734
2421.2,2.246538
2422.5,1.24028
2423.9,2.954
2425.3,3.24708
2426.7,0.50518
2428,1.92669
2429.4,0.92944
2430.8,0.2475
2432.1,-0.19872
2433.5,2.41646
2434.9,0.535348
2436.2,2.11256
2437.6,0.381128
2439,3.367578
2440.3,0.311994
2441.7,1.32368
2443.1,0.47978
2444.4,2.653448
2445.8,-0.421346
2447.2,1.82188
2448.5,1.035928
2449.9,-0.073486
2451.2,4.23346
2452.6,1.78928
2454,0.67508
2455.3,0.513272
2456.7,2.892258
2458,1.880784
2459.4,1.919122
2460.7,1.2572002
2462.1,1.500804
2463.4,5.2828
2464.8,2.86542
2466.1,2.03768
2467.5,2.75184
2468.8,1.4860342
2470.2,4.2519
2471.5,3.064056
2472.9,2.4139
2474.2,1.54454
2475.6,2.31998
2476.9,5.76372
2478.3,1.3107
2479.6,1.95518
2481,2.687064
2482.3,3.084496
2483.6,3.647176
2485,1.52672
2486.3,1.665796
2487.7,0.481882
2489,1.804246
2490.3,1.829012
2491.7,5.08884
2493,3.5689
2494.4,-0.49334
2495.7,1.34556
2497,-0.0868819999999998
2498.4,4.83858
2499.7,2.844248
2501,1.881646
2502.4,1.13076
2503.7,1.619086
2505,2.97736
2506.4,2.03788
2507.7,-0.383572
2509,1.90616
2510.3,1.630142
2511.7,0.9254
2513,3.042
2514.3,4.89354
2515.6,2.114058
2517,2.51648
2518.3,1.88282
2519.6,1.543936
2520.9,0
2522.3,3.24948
2523.6,2.02476
2524.9,1.35842
2526.2,3.295276
2527.5,3.59546
2528.9,-0.77622
2530.2,1.2705406
2531.5,3.047854
2532.8,2.92526
2534.1,1.05688
2535.4,0.487906
2536.8,2.83892
2538.1,0.28378
2539.4,3.45598
2540.7,-0.5927416
2542,0.69476
2543.3,3.36874
2544.6,1.86771
2545.9,1.27368
2547.2,0.0429440000000001
2548.6,1.41198
2549.9,4.144349
2551.2,2.628836
2552.5,3.7125
2553.8,3.544894
2555.1,1.88484
2556.4,3.496818
2557.7,1.031088
2559,3.73046
2560.3,2.88564
2561.6,0.215664
2562.9,1.38264
2564.2,3.909228
2565.5,2.837934
2566.8,4.1324
2568.1,3.33522
2569.4,3.961226
2570.7,2.396224
2572,0.527522
2573.3,2.69204
2574.6,3.92624
2575.9,1.544738
2577.1,1.890354
2578.4,3.82616
2579.7,2.1962
2581,2.58384
2582.3,1.83315
2583.6,3.24966
2584.9,5.84174
2586.2,1.0554
2587.5,1.63619
2588.7,2.222476
2590,0.961494
2591.3,1.181564
2592.6,1.009056
2593.9,1.977502
2595.2,2.147806
2596.4,2.6603288
2597.7,2.5157
2599,-0.43372
2600.3,2.71126
2601.6,2.06182
2602.8,1.78938
2604.1,3.395848
2605.4,3.177846
2606.7,5.651472
2608,3.0215
2609.2,2.35494
2610.5,1.810424
2611.8,1.693342
2613,1.701274
2614.3,3.232338
2615.6,0.3783
2616.9,0.483308
2618.1,0.00045200000000003
2619.4,2.632216
2620.7,1.015716
2621.9,-1.800918
2623.2,2.37302
2624.5,-2.200824
2625.7,0.67874
2627,1.580796
2628.3,-0.166612
2629.5,0
2630.8,-1.666774
2632.1,0.555956
2633.3,1.1040782
2634.6,2.85022
2635.8,0.972574
2637.1,-1.302354
2638.4,-2.052518
2639.6,-0.611488
2640.9,0.94736
2642.1,-2.004512
2643.4,-0.84972
2644.6,-0.8553426
2645.9,0.13851
2647.2,-3.54946
2648.4,0.805085
2649.7,1.352888
2650.9,-0.600592
2652.2,-1.43946
2653.4,-0.303322
2654.7,-1.764828
2655.9,-0.946474
2657.2,-1.3731
2658.4,-1.995664
2659.7,-0.2592722
2660.9,-0.357284
2662.2,-0.99872
2663.4,-0.48048
2664.6,-0.53209
2665.9,-1.2186836
2667.1,-2.73966
2668.4,-0.98236
2669.6,-1.16007
2670.9,0.53461
2672.1,-2.076082
2673.3,-1.203666
2674.6,-1.57032
2675.8,-0.517758
2677.1,-2.36134
2678.3,-0.438412
2679.5,-0.1638943
2680.8,-0.944028
2682,-2.060152
2683.2,-0.701446
2684.5,-1.100776
2685.7,1.233492
2686.9,-1.450066
2688.2,-2.553244
2689.4,-1.989986
2690.6,-0.509342
2691.9,-1.061544
2693.1,-2.291738
2694.3,-1.8451056
2695.5,-0.262738
2696.8,-0.6444898
2698,-2.22246
2699.2,-1.84338
2700.4,-0.183238
2701.7,0.0121619999999999
2702.9,-1.73716
2704.1,-2.177552
2705.3,-1.9778604
2706.6,-1.17227
2707.8,0.3874
2709,-0.472152
2710.2,2.1244042
2711.4,-2.328694
2712.6,-1.96754
2713.9,-1.33647
2715.1,-0.681524
2716.3,2.38046
2717.5,0.010256
2718.7,-1.65448
2719.9,-1.743536
2721.2,-0.149838
2722.4,-0.774094
2723.6,1.22666
2724.8,0.277828
2726,0
2727.2,0.26084
2728.4,-1.1152972
2729.6,1.583398
2730.8,-0.10962
2732,-0.200038
2733.3,2.937116
2734.5,0.140578
2735.7,-0.1418882
2736.9,-0.0835620000000001
2738.1,-0.916954
2739.3,1.530712
2740.5,-0.02181
2741.7,0.0731059999999999
2742.9,-1.446344
2744.1,-0.28334
2745.3,-0.270582
2746.5,-2.64182
2747.7,1.666318
2748.9,0.98598
2750.1,-1.74387326
2751.3,1.679362
2752.5,1.7832206
2753.7,0.182102
2754.9,2.194178
2756,0.2562938
2757.2,1.143288
2758.4,3.420758
2759.6,1.703594
2760.8,-0.821018
2762,1.71748
2763.2,0.84992
2764.4,0.507352
2765.6,2.238848
2766.8,1.33406
2767.9,2.7576
2769.1,-1.921544
2770.3,2.530052
2771.5,3.27756
2772.7,1.7725
2773.9,1.02758
2775.1,1.86836
2776.2,1.663864
2777.4,1.528558
2778.6,2.312046
2779.8,-0.610892
2781,0.460044
2782.1,1.291566
2783.3,2.557462
2784.5,2.66596
2785.7,-0.48544
2786.8,3.304528
2788,1.455964
2789.2,0.91495636
2790.4,2.03066
2791.5,1.86718
2792.7,-0.517582
2793.9,1.060244
2795.1,0.0461125799999998
2796.2,0.2425228
2797.4,0.590096
2798.6,-0.4583
2799.7,-1.460942
2800.9,-0.710772
2802.1,0.0200600000000002
2803.2,0.00587999999999989
2804.4,0.344804
2805.6,0.394294
2806.7,0.0994642
2807.9,-1.10518
2809.1,0.463484
2810.2,1.31017
2811.4,0.982434
2812.6,1.260898
2813.7,1.04406
2814.9,0.525658
2816,0.96606
2817.2,-0.184464
2818.4,0
2819.5,4.0595
2820.7,-0.668676
2821.8,1.224402
2823,0.4268
2824.1,1.137038
2825.3,2.208544
2826.4,-0.52207
2827.6,2.261838
2828.7,0.470602
2829.9,1.837746
2831,2.423634
2832.2,0.15411
2833.3,0.832882
2834.5,1.439968
2835.6,-0.908576
2836.8,0.770136
2837.9,-1.5734612
2839.1,1.319582
2840.2,-1.63646
2841.4,0.0749543999999998
2842.5,-0.0276540000000001
2843.7,-0.862449
2844.8,1.5531904
2845.9,2.507886
2847.1,0.32228
2848.2,0.058116
2849.4,-1.944622
2850.5,-0.05664
2851.7,-2.7818
2852.8,-0.63568
2853.9,-0.89552
2855.1,-2.369154
2856.2,-0.0364600000000001
2857.3,-1.1442194
2858.5,0.0970240000000001
2859.6,0.85834
2860.7,-2.641496
2861.9,-1.654588
2863,-0.628858
2864.1,-2.48914
2865.3,-4.819258
2866.4,-2.988092
2867.5,-0.89462
2868.7,-0.853502
2869.8,-1.03577
2870.9,-2.01146
2872,-0.3685
2873.2,-0.1924322
2874.3,-2.9251
2875.4,1.17838
2876.5,0.888826
2877.7,-0.31378
2878.8,0.1402
2879.9,-0.4524624
2881,0.426234
2882.2,0.828012
2883.3,-0.48118
2884.4,-0.51982
2885.5,-0.121544
2886.6,1.45272224
2887.8,-2.24906
2888.9,1.633
2890,0.79569
2891.1,5.36394
2892.2,4.07276
2893.3,3.08826
2894.4,4.2672
2895.6,3.72603
2896.7,7.432504
2897.8,4.76356
2898.9,7.73682
2900,7.6449
2901.1,3.05816
2902.2,9.02908
2903.3,8.29704
2904.4,9.2264
2905.6,10.34288
2906.7,10.5473
2907.8,11.17338
2908.9,13.601
2910,14.79462
2911.1,17.4582
2912.2,19.3842
2913.3,16.7252
2914.4,17.1588
2915.5,20.1822
2916.6,19.829
2917.7,20.3766
2918.8,21.1284
2919.9,24.738
2921,25.5038
2922.1,26.0266
2923.2,28.5812
2924.3,28.3168
2925.4,28.0924
2926.5,32.6922
2927.6,29.7494
2928.7,31.2934
2929.8,32.4378
2930.8,31.8502
2931.9,33.7956
2933,35.5802
2934.1,38.5792
2935.2,37.3614
2936.3,39.7694
2937.4,39.8126
2938.5,39.7754
2939.6,41.1814
2940.6,40.791
2941.7,42.2892
2942.8,42.0206
2943.9,43.4482
2945,40.3822
2946.1,40.8824
2947.2,43.2746
2948.2,45.372
2949.3,42.3472
2950.4,40.2866
2951.5,40.727
2952.6,39.5054
2953.6,38.7426
2954.7,37.1242
2955.8,36.3834
2956.9,34.5696
2957.9,35.3862
2959,29.7766
2960.1,30.495
2961.2,30.4084
2962.2,31.9542
2963.3,30.5004
2964.4,27.0752
2965.5,27.3096
2966.5,24.9192
2967.6,23.6812
2968.7,22.9578
2969.7,21.4846
2970.8,22.1482
2971.9,21.6526
2973,18.6378
2974,21.4686
2975.1,21.417
2976.2,17.3464
2977.2,18.7126
2978.3,20.63
2979.3,20.8274
2980.4,18.0742
2981.5,16.8774
2982.5,18.759
2983.6,17.98048
2984.7,19.6904
2985.7,16.4204
2986.8,17.6802
2987.8,18.04
2988.9,16.8572
2989.9,19.0646
2991,20.032
2992.1,19.4574
2993.1,18.5754
2994.2,18.9954
2995.2,20.6274
2996.3,22.9078
2997.3,21.4946
2998.4,21.1308
2999.4,19.4768
3000.5,22.6518
3001.5,23.062
3002.6,24.3426
3003.6,24.3672
3004.7,24.921
3005.7,25.4196
3006.8,25.2938
3007.8,28.0398
3008.9,28.1926
3009.9,26.5274
3011,27.5212
3012,28.308
3013,32.3588
3014.1,31.0516
3015.1,33.8276
3016.2,32.6218
3017.2,31.256
3018.2,34.0078
3019.3,34.7314
3020.3,35.9502
3021.4,37.708
3022.4,36.6288
3023.4,38.791
3024.5,40.7978
3025.5,38.2312
3026.5,40.8382
3027.6,40.8674
3028.6,43.4722
3029.6,41.4928
3030.7,43.2618
3031.7,45.032
3032.7,44.5752
3033.8,49.311
3034.8,49.5142
3035.8,50.0338
3036.9,52.784
3037.9,49.3466
3038.9,50.297
3039.9,54.1384
3041,54.3612
3042,56.2388
3043,56.3792
3044,56.3422
3045.1,61.3686
3046.1,60.2902
3047.1,60.365
3048.1,61.6298
3049.2,61.067
3050.2,64.9494
3051.2,65.788
3052.2,68.1794
3053.2,69.5542
3054.3,69.1854
3055.3,69.1666
3056.3,69.01
3057.3,70.7508
3058.3,73.398
3059.3,73.5052
3060.3,78.2738
3061.4,75.64
3062.4,78.8544
3063.4,82.0412
3064.4,82.092
3065.4,84.131
3066.4,84.1142
3067.4,85.6178
3068.4,85.7556
3069.5,84.8146
3070.5,93.0276
3071.5,91.41
3072.5,91.2074
3073.5,91.7622
3074.5,94.9428
3075.5,97.6766
3076.5,96.3126
3077.5,96.9678
3078.5,102.3314
3079.5,103.296
3080.5,103.87
3081.5,103.404
3082.5,108.456
3083.5,102.528
3084.5,109.338
3085.5,109.1318
3086.5,115.28
3087.5,113.902
3088.5,114.378
3089.5,116.024
3090.5,118.482
3091.5,123.096
3092.5,120.616
3093.5,122.05
3094.5,124.3
3095.5,126.352
3096.4,126.51
3097.4,127.218
3098.4,126.7
3099.4,132.918
3100.4,134.234
3101.4,135.596
3102.4,141.594
3103.4,139.322
3104.4,136.046
3105.3,143.396
3106.3,148.356
3107.3,148.15
3108.3,147.99
3109.3,151.01
3110.3,152.086
3111.3,153.754
3112.2,157.288
3113.2,160.456
3114.2,160.08
3115.2,162.584
3116.2,163.044
3117.1,166.342
3118.1,166.984
3119.1,169.168
3120.1,167.13
3121,171.308
3122,171.852
3123,177.198
3124,176.888
3124.9,177.456
3125.9,179.006
3126.9,185.346
3127.9,188.386
3128.8,187.34
3129.8,186.474
3130.8,188.418
3131.7,190.892
3132.7,196.438
3133.7,197.22
3134.7,199.106
3135.6,195.678
3136.6,196.448
3137.6,199.746
3138.5,201.896
3139.5,201.882
3140.4,205.12
3141.4,205.566
3142.4,205.99
3143.3,208.43
3144.3,209.176
3145.3,212.314
3146.2,210.482
3147.2,212.55
3148.1,214.466
3149.1,214.256
3150.1,214.606
3151,218.524
3152,220.038
3152.9,220.346
3153.9,220.962
3154.8,225.17
3155.8,220.58
3156.7,226.566
3157.7,226.038
3158.6,229.736
3159.6,227.646
3160.6,230.576
3161.5,231.482
3162.5,230.842
3163.4,232.536
3164.4,233.604
3165.3,233.018
3166.2,233.572
3167.2,234.752
3168.1,234.6
3169.1,237.724
3170,239.404
3171,240.664
3171.9,240.946
3172.9,236.234
3173.8,238.396
3174.7,239.996
3175.7,241.062
3176.6,241.592
3177.6,240.172
3178.5,242.124
3179.5,238.622
3180.4,242.666
3181.3,242.816
3182.3,246.22
3183.2,243.628
3184.1,243.546
3185.1,245.914
3186,243.52
3186.9,245.662
3187.9,246.068
3188.8,243.07
3189.7,247.22
3190.7,246.518
3191.6,241.622
3192.5,246.606
3193.5,245.638
3194.4,246.868
3195.3,244.544
3196.3,245.074
3197.2,244.75
3198.1,244.896
3199,237.882
3200,236.77
3200.9,236.18
3201.8,239.296
3202.7,238.68
3203.7,241.356
3204.6,236.964
3205.5,237.916
3206.4,234.308
3207.3,235.332
3208.3,234.794
3209.2,228.406
3210.1,228.964
3211,229.712
3211.9,227.538
3212.9,221.104
3213.8,222.782
3214.7,221.6
3215.6,219.914
3216.5,218.224
3217.4,218.678
3218.4,215.91
3219.3,215.164
3220.2,207.308
3221.1,210.002
3222,207.912
3222.9,202.768
3223.8,203.278
3224.7,198.77
3225.6,198.616
3226.6,194.764
3227.5,191.844
3228.4,189.57
3229.3,187.54
3230.2,186.29
3231.1,180.23
3232,179.428
3232.9,173.638
3233.8,171.834
3234.7,171.092
3235.6,167.348
3236.5,164.71
3237.4,161.774
3238.3,157.63
3239.2,152.776
3240.1,147.078
3241,147.198
3241.9,141.18
3242.8,137.02
3243.7,126.012
3244.6,126.276
3245.5,124
3246.4,113.714
3247.3,106.9294
3248.2,99.9222
3249.1,93.685
3250,81.1152
3250.9,78.3248
3251.8,66.4708
3252.7,50.515
3253.5,41.3106
3254.4,22.5072
3255.3,11.7867
3256.2,-8.15418
