250.34,-1.64542
252.57,-3.32042
254.8,0
257.03,-5.38364
259.26,-2.591488
261.48,3.7224
263.71,4.48474
265.94,-5.235722
268.16,3.25246
270.39,-0.0521399999999999
272.61,4.01482
274.84,-1.331264
277.06,0.37655732
279.28,-1.15798
281.51,6.47468
283.73,-1.861156
285.95,2.1594
288.17,6.012078
290.39,0.643636
292.61,5.5633
294.83,-4.6932
297.05,1.42854
299.27,5.32198
301.48,8.62292
303.7,8.06142
305.91,10.54796
308.13,10.29892
310.35,8.51116
312.56,8.12226
314.77,6.36516
316.99,-1.533102
319.2,2.70926
321.41,4.81936
323.62,7.04502
325.83,-0.1440396
328.04,0.54482
330.25,-2.0497
332.46,-0.22112
334.67,-1.818124
336.88,0.98332
339.08,-4.05566
341.29,1.447633
343.5,2.05034
345.7,18.7168
347.91,32.111
350.11,77.64
352.31,150.664
354.52,204.63
356.72,183.278
358.92,126.92
361.12,74.455
363.32,46.2432
365.52,35.8472
367.72,28.9882
369.92,24.0403
372.12,29.7536
374.32,49.5764
376.51,81.5398
378.71,116.818
380.9,96.0174
383.1,59.8516
385.29,24.849
387.49,13.41836
389.68,6.39622
391.87,3.716224
394.07,1.513768
396.26,-1.319716
398.45,4.09682
400.64,7.9001
402.83,17.49886
405.02,16.829
407.21,39.8732
409.39,57.6976
411.58,136.182
413.77,357.234
415.95,637.514
418.14,700
420.32,485.806
422.51,248.842
424.69,122.978
426.87,94.3028
429.06,88.6924
431.24,83.0278
433.42,63.0834
435.6,37.0346
437.78,15.08772
439.96,5.826564
442.14,-0.10590818
444.31,13.26956
446.49,32.3036
448.67,45.7676
450.84,45.3138
453.02,22.21924
455.19,8.5321
457.37,0.86832
459.54,1.41182
461.71,-0.81382
463.89,0.204506
466.06,-1.71344
468.23,-1.8445
470.4,-9.59476
472.57,-9.343222
474.74,-5.46758
476.91,-5.25668
479.07,-6.9414
481.24,4.45418
483.41,11.17406
485.57,8.43524
487.74,6.4876
489.9,12.407932
492.07,6.56188
494.23,-3.28316
496.4,-1.5353
498.56,-5.77948
500.72,-10.01596
502.88,-2.87582
505.04,-5.62754
507.2,-7.84116
509.36,-3.241678
511.52,-5.67452
513.68,-3.18918384
515.83,3.38676
517.99,4.98958
520.14,1.19078
522.3,-2.716836
524.45,2.939596
526.61,-0.419262
528.76,-0.54832
530.91,4.806646
533.07,8.85338
535.22,10.65232
537.37,13.768
539.52,12.13662
541.67,11.18076
543.82,8.50038
545.97,9.70886
548.11,7.277894
550.26,-1.0298018
552.41,-0.21194
554.55,0.950378
556.7,6.55568
558.84,2.664536
560.98,5.871612
563.13,9.80754
565.27,10.2544
567.41,10.44796
569.55,27.2978
571.69,53.2096
573.83,97.2792
575.97,143.786
578.11,158.91
580.25,152.972
582.39,207.848
584.52,365.92
586.66,512.912
588.79,496.448
590.93,337.158
593.06,182.314
595.19,99.6172
597.33,54.791
599.46,34.8502
601.59,20.7664
603.72,10.86018
605.85,8.08732
607.98,-0.02043312
610.11,3.24514
612.24,2.07826
614.36,6.70762
616.49,1.94484
618.62,-0.33846
620.74,2.26908
622.87,-0.935248
624.99,0.368934
627.11,-2.190162
629.24,-0.78877
631.36,-7.8748
633.48,1.778986
635.6,-0.795028
637.72,2.54172
639.84,2.54788
641.96,0.0645588
644.08,-3.35788
646.2,1.704094
648.31,-3.129524
650.43,-3.578858
652.54,-3.77494
654.66,-7.12082
656.77,-6.031646
658.89,-7.84106
661,-3.41874
663.11,-3.27406
665.22,-0.57974
667.33,-2.81286
669.44,-6.93426
671.55,-6.22654
673.66,-3.79982
675.77,-1.09532
677.88,1.68474
679.98,12.70178
682.09,12.849388
684.2,22.5392
686.3,30.307
688.4,33.6472
690.51,46.9304
692.61,49.7082
694.71,50.9306
696.81,52.9906
698.92,59.7414
701.02,64.9704
703.11,71.3978
705.21,74.3878
707.31,78.8944
709.41,80.6864
711.51,84.7752
713.6,79.9032
715.7,77.271
717.79,67.3246
719.89,61.6282
721.98,54.8908
724.07,43.831
726.16,34.7516
728.25,29.5026
730.35,33.524
732.44,35.134
734.52,42.4118
736.61,51.8024
738.7,63.2106
740.79,88.3802
742.87,125.29
744.96,161.104
747.05,210.266
749.13,237.226
751.21,245.814
753.3,214.308
755.38,163.378
757.46,115.9
759.54,82.6638
761.62,54.3126
763.7,33.7484
765.78,26.588
767.86,11.4529
769.94,4.557502
772.01,0.924018
774.09,0.933598
776.17,-2.54106
778.24,-5.6063
780.32,-4.631708
782.39,-4.93242
784.46,1.46612
786.53,2.75716
788.61,4.423746
790.68,4.80518
792.75,8.28534
794.82,7.62348
796.89,5.11194
798.95,3.83946
801.02,-0.16898
803.09,1.98294
805.15,10.14656
807.22,10.89318
809.28,20.4814
811.35,53.1326
813.41,88.5794
815.47,92.9958
817.53,62.7268
819.6,28.3458
821.66,13.479
823.72,9.65614
825.78,-0.21211
827.83,2.059174
829.89,2.097498
831.95,6.290162
834,1.114956
836.06,3.7435266
838.12,7.011081
840.17,5.3741
842.22,0.81812
844.28,5.078894
846.33,4.81244
848.38,3.7318462
850.43,7.21158
852.48,5.72116
854.53,4.9735
856.58,6.0976
858.63,8.38658
860.67,6.70286
862.72,4.79602
864.77,1.77372
866.81,5.57534
868.86,1.589376
870.9,3.44988
872.94,3.7415406
874.98,-1.021304
877.03,-1.5392
879.07,-0.17506
881.11,1.78132
883.15,0.74596
885.19,2.30682
887.22,2.558052
889.26,3.53864
891.3,2.55886
893.33,-1.78366
895.37,-0.95767
897.4,-0.20932
899.44,0
901.47,-0.863664
903.5,-1.61188
905.54,1.81596
907.57,6.76612
909.6,2.86572
911.63,-1.668252
913.66,4.45072
915.68,8.47208
917.71,1.6753
919.74,-0.68562988
921.76,1.61714
923.79,-3.970138
925.82,0.34498
927.84,5.21482
929.86,3.59316
931.89,6.34698
933.91,9.14122
935.93,8.32508
937.95,5.84108
939.97,3.21648
941.99,5.43034
944.01,2.14856
946.02,3.59142
948.04,4.840972
950.06,1.35122
952.07,3.1827
954.09,1.263776
956.1,9.76872
958.12,8.10016
960.13,11.6143
962.14,6.0995
964.15,6.38188
966.16,1.86068
968.17,1.644646
970.18,-0.1662532
972.19,0.382874
974.2,3.69844
976.2,5.501538
978.21,10.8316
980.22,8.99928
982.22,8.30462
984.22,10.49788
986.23,9.84428
988.23,4.979
990.23,13.1438
992.23,12.14752
994.24,8.99202
996.23,8.24082
998.23,9.03166
1000.2,11.76674
1002.2,13.35972
1004.2,20.1396
1006.2,16.7676
1008.2,18.409
1010.2,17.763
1012.2,20.383
1014.2,18.5374
1016.2,21.4226
1018.2,22.3638
1020.2,21.6116
1022.2,26.333
1024.2,30.6146
1026.1,31.9894
1028.1,40.8646
1030.1,52.3334
1032.1,73.4784
1034.1,95.4712
1036.1,90.9644
1038.1,64.6528
1040.1,50.0772
1042,42.6868
1044,35.4266
1046,36.1578
1048,38.798
1050,41.148
1051.9,41.08
1053.9,40.156
1055.9,37.9536
1057.9,36.426
1059.9,34.7874
1061.8,31.195
1063.8,31.71
1065.8,29.1198
1067.8,29.5408
1069.7,23.413
1071.7,25.886
1073.7,22.8604
1075.6,23.0728
1077.6,22.027
1079.6,19.3386
1081.5,19.6914
1083.5,15.84922
1085.5,9.54916
1087.5,10.6423
1089.4,5.9326
1091.4,10.80632
1093.3,7.74884
1095.3,5.340952
1097.3,9.23302
1099.2,7.22192
1101.2,4.873208
1103.2,8.55758
1105.1,5.250584
1107.1,2.56327
1109,7.5336
1111,2.812722
1113,-1.225268
1114.9,3.28323
1116.9,3.178634
1118.8,2.4073
1120.8,6.87008
1122.7,9.22732
1124.7,8.14374
1126.6,2.278898
1128.6,9.91556
1130.5,7.41454
1132.5,7.401432
1134.4,6.195714
1136.4,11.57988
1138.3,12.2885
1140.3,11.07488
1142.2,13.21104
1144.2,19.191
1146.1,17.6946
1148.1,14.1512
1150,19.2464
1151.9,19.0166
1153.9,21.3854
1155.8,19.8998
1157.8,20.4176
1159.7,23.209
1161.6,23.0166
1163.6,31.616
1165.5,34.6468
1167.5,33.1596
1169.4,35.1838
1171.3,40.6818
1173.3,41.4212
1175.2,44.8708
1177.1,44.72
1179.1,49.9216
1181,50.4442
1182.9,55.7454
1184.9,60.0356
1186.8,70.336
1188.7,73.9082
1190.6,81.7
1192.6,88.2724
1194.5,96.1312
1196.4,97.1448
1198.4,101.344
1200.3,107.5916
1202.2,114.902
1204.1,117.106
1206,121.294
1208,128.344
1209.9,130.376
1211.8,136.498
1213.7,141.784
1215.6,145.262
1217.6,140.656
1219.5,146.052
1221.4,140.938
1223.3,136.114
1225.2,134.828
1227.1,129.64
1229.1,131.996
1231,129.024
1232.9,121.564
1234.8,118.69
1236.7,115.344
1238.6,115.826
1240.5,108.836
1242.4,104.5574
1244.3,104.8932
1246.2,110.164
1248.1,104.9576
1250.1,97.6686
1252,94.8634
1253.9,96.5586
1255.8,100.1178
1257.7,100.4782
1259.6,112.184
1261.5,114.018
1263.4,117.694
1265.3,130.792
1267.2,141.8
1269.1,149.338
1271,160.556
1272.9,172.144
1274.8,173.948
1276.6,172.522
1278.5,166.212
1280.4,154.024
1282.3,146.434
1284.2,141.714
1286.1,125.984
1288,108.6864
1289.9,95.5774
1291.8,84.738
1293.7,77.1428
1295.6,73.9996
1297.4,66.9176
1299.3,68.2974
1301.2,64.2024
1303.1,60.879
1305,61.5328
1306.9,59.025
1308.7,61.7108
1310.6,55.3986
1312.5,54.6046
1314.4,53.4168
1316.3,51.7234
1318.1,47.8766
1320,46.5688
1321.9,48.7668
1323.8,50.7894
1325.7,53.9284
1327.5,56.1328
1329.4,55.0194
1331.3,52.8648
1333.1,55.0894
1335,51.8974
1336.9,59.1448
1338.8,57.9998
1340.6,64.452
1342.5,65.2724
1344.4,73.7472
1346.2,80.2822
1348.1,90.1964
1350,97.5014
1351.8,102.042
1353.7,105.6576
1355.6,107.8542
1357.4,103.7138
1359.3,105.0816
1361.1,112.4032
1363,116.712
1364.9,129.598
1366.7,146.59
1368.6,165.006
1370.4,186.482
1372.3,222.98
1374.2,268.032
1376,325.248
1377.9,404.098
1379.7,476.722
1381.6,540.088
1383.4,560.642
1385.3,531.218
1387.1,474.874
1389,402.796
1390.8,339.002
1392.7,290.872
1394.5,270.414
1396.4,255.28
1398.2,257.15
1400.1,247.252
1401.9,232.848
1403.8,213.932
1405.6,183.95
1407.4,161.73
1409.3,132.398
1411.1,109.9518
1413,91.4146
1414.8,77.3526
1416.6,71.2746
1418.5,62.1032
1420.3,51.0294
1422.2,45.2284
1424,39.2932
1425.8,31.9058
1427.7,31.1442
1429.5,25.226
1431.3,18.6579
1433.2,15.4764
1435,12.76824
1436.8,14.5356
1438.7,14.731
1440.5,10.86554
1442.3,9.77262
1444.1,9.38316
1446,3.587941
1447.8,2.9769596
1449.6,1.455238
1451.4,-0.932392
1453.3,0.122784
1455.1,-0.480076
1456.9,0.264342
1458.7,-2.547788
1460.6,-1.740272
1462.4,-0.44888
1464.2,-3.262968
1466,-8.60018
1467.8,-7.33408
1469.6,-7.592958
1471.5,-5.10146
1473.3,-8.92712
1475.1,-8.61792
1476.9,-8.27866
1478.7,-3.750548
1480.5,-8.90346
1482.4,-6.22242
1484.2,-7.17726
1486,-8.26434
1487.8,-8.54878
1489.6,-9.322332
1491.4,-9.28446
1493.2,-7.3944
1495,-5.724246
1496.8,-5.52682
1498.6,-6.257536
1500.4,-5.77319
1502.2,-5.96842
1504,-5.119622
1505.8,-6.5612
1507.6,-3.601804
1509.4,-4.571966
1511.2,-3.445526
1513,-0.8664
1514.8,-5.236264
1516.6,-4.3906894
1518.4,-3.334764
1520.2,-0.798352
1522,-1.168278
1523.8,-0.66926
1525.6,-2.47376
1527.4,-3.13068
1529.2,-0.453420000000001
1531,-2.705636
1532.8,0.70736
1534.6,0.39662
1536.4,-0.117766
1538.2,0.069008
1539.9,5.0696
1541.7,3.3895
1543.5,4.5159
1545.3,10.87496
1547.1,10.88322
1548.9,16.2295
1550.7,23.604
1552.4,29.6958
1554.2,37.2804
1556,42.1442
1557.8,40.9314
1559.6,33.8462
1561.3,32.6342
1563.1,35.1662
1564.9,38.594
1566.7,43.6324
1568.4,46.1702
1570.2,53.688
1572,58.1906
1573.8,62.2242
1575.5,66.051
1577.3,74.6556
1579.1,78.8254
1580.9,85.7478
1582.6,90.4156
1584.4,99.3038
1586.2,102.1506
1587.9,109.702
1589.7,113.042
1591.5,124.478
1593.2,131.566
1595,134.346
1596.8,146.204
1598.5,148.696
1600.3,160.118
1602,168.72
1603.8,175.3
1605.6,187.948
1607.3,196.81
1609.1,210.622
1610.8,217.066
1612.6,221.532
1614.4,231.194
1616.1,238.914
1617.9,247.638
1619.6,252.95
1621.4,261.44
1623.1,271.422
1624.9,275.186
1626.6,284.046
1628.4,292.594
1630.1,297.69
1631.9,300.718
1633.6,306.298
1635.4,311.316
1637.1,313.672
1638.9,314.644
1640.6,312.134
1642.4,312.528
1644.1,314.688
1645.8,315.45
1647.6,316.622
1649.3,315.798
1651.1,314.772
1652.8,314.468
1654.6,312.57
1656.3,311.626
1658,310.764
1659.8,303.86
1661.5,300.636
1663.2,294.732
1665,297.072
1666.7,291.334
1668.4,283.112
1670.2,283.396
1671.9,280.42
1673.6,279.966
1675.4,272.42
1677.1,273.394
1678.8,271.116
1680.5,269.444
1682.3,266.834
1684,261.848
1685.7,260.67
1687.5,263.912
1689.2,268.758
1690.9,268.478
1692.6,268.268
1694.3,271.134
1696.1,275.27
1697.8,276.818
1699.5,283.198
1701.2,286.244
1702.9,287.754
1704.7,291.55
1706.4,295.324
1708.1,299.086
1709.8,302.782
1711.5,300.976
1713.2,302.294
1714.9,298.538
1716.7,293.096
1718.4,291.158
1720.1,290.782
1721.8,284.872
1723.5,276.362
1725.2,266.694
1726.9,263.01
1728.6,256.218
1730.3,246.23
1732,238.28
1733.7,228.334
1735.4,215.66
1737.1,202.924
1738.8,189.134
1740.6,175.602
1742.3,157.22
1744,144.328
1745.7,128.652
1747.3,115.18
1749,103.8082
1750.7,95.0306
1752.4,82.6448
1754.1,70.9132
1755.8,62.718
1757.5,52.9778
1759.2,48.08
1760.9,41.8938
1762.6,38.6324
1764.3,35.3656
1766,26.2278
1767.7,25.6086
1769.4,22.6248
1771.1,20.965
1772.7,20.9618
1774.4,15.41468
1776.1,14.5564
1777.8,12.5362
1779.5,9.11236
1781.2,6.871116
1782.8,8.03814
1784.5,4.33632
1786.2,5.45812
1787.9,-0.669158
1789.6,5.71588
1791.2,0.78051
1792.9,5.71812
1794.6,0.832934
1796.3,-1.101062
1798,-1.228852
1799.6,-0.391794
1801.3,-1.201488
1803,-2.7645868
1804.7,-0.260704
1806.3,-4.89053
1808,-6.145568
1809.7,-3.64416
1811.3,-2.91378
1813,-1.949852
1814.7,0.286882
1816.3,2.639532
1818,-0.90158
1819.7,-1.7757362
1821.3,-1.392692
1823,-3.22422
1824.7,-2.122212
1826.3,-2.760228
1828,-0.32856
1829.7,1.910932
1831.3,1.74754
1833,-4.2314
1834.6,-1.41602
1836.3,-1.350118
1838,-3.020916
1839.6,2.3629
1841.3,0.353246
1842.9,-3.149768
1844.6,-0.8385432
1846.2,-1.41584
1847.9,-2.565068
1849.5,-0.1883248
1851.2,4.68866
1852.8,2.5913
1854.5,0.53428
1856.1,1.84234
1857.8,0.649026
1859.4,1.658768
1861.1,2.720714
1862.7,-1.23373
1864.4,3.091212
1866,3.15546
1867.7,1.73272
1869.3,4.4831
1871,2.612922
1872.6,1.32852
1874.2,3.78002
1875.9,0.560502
1877.5,-0.60842
1879.2,0
1880.8,0.47676
1882.4,-5.87566
1884.1,-0.756846
1885.7,2.7118
1887.3,0.72274
1889,-3.1938
1890.6,-3.312264
1892.2,-1.956
1893.9,-0.00212400000000001
1895.5,-2.9071
1897.1,-0.677502
1898.8,2.7979
1900.4,-1.821132
1902,-3.94872
1903.7,-5.75886
1905.3,-1.67914
1906.9,-1.17124
1908.5,-3.283806
1910.2,-3.973334
1911.8,-0.457122
1913.4,-2.526424
1915,-0.96165
1916.7,-3.404254
1918.3,-3.881378
1919.9,1.0407
1921.5,-1.65853
1923.1,1.14302
1924.8,-2.331366
1926.4,-2.8518
1928,-1.96102
1929.6,-0.146018
1931.2,-0.03792
1932.8,-0.45486
1934.4,-0.16811
1936.1,-0.37997
1937.7,-1.077324
1939.3,-1.143842
1940.9,-0.452124
1942.5,-1.36356
1944.1,-5.05828
1945.7,2.39368
1947.3,-1.18846
1948.9,1.83713
1950.5,1.4425
1952.1,-0.0658546
1953.8,1.891226
1955.4,2.92936
1957,-2.1262258
1958.6,-0.0928799999999999
1960.2,-0.981678
1961.8,2.399826
1963.4,-0.00396200000000011
1965,0.57438
1966.6,1.098592
1968.2,-1.063012
1969.8,3.3711858
1971.4,2.49618
1973,-0.95998
1974.5,0.5918
1976.1,-1.754976
1977.7,-0.4095
1979.3,0.461366
1980.9,1.12948
1982.5,-0.68916
1984.1,-0.55977
1985.7,0.91072
1987.3,1.2708
1988.9,-0.0740860000000001
1990.5,1.31958
1992,1.72436
1993.6,4.035306
1995.2,3.24535
1996.8,4.284834
1998.4,1.0539332
2000,-0.0170999999999999
2001.6,0.4002
2003.1,2.46452
2004.7,1.12515
2006.3,0.699126
2007.9,1.44265
2009.5,3.460714
2011,2.3804
2012.6,1.59614
2014.2,3.15626
2015.8,1.890782
2017.3,-0.390622
2018.9,-0.8979118
2020.5,4.7747218
2022.1,4.22744
2023.6,4.81442
2025.2,4.26538
2026.8,1.311348
2028.3,2.485098
2029.9,1.406542
2031.5,1.28913
2033,5.15852
2034.6,3.83038
2036.2,2.43542
2037.7,3.409394
2039.3,5.73368
2040.9,4.9571
2042.4,3.2718
2044,2.303282
2045.6,3.85999
2047.1,3.870736
2048.7,5.08164
2050.2,0.0369079999999999
2051.8,4.4775
2053.4,2.13996
2054.9,2.447202
2056.5,0.99854
2058,4.06528
2059.6,1.628758
2061.1,2.418678
2062.7,0.203328
2064.2,2.848248
2065.8,-0.12158
2067.3,-0.739464
2068.9,2.2858
2070.4,-0.166708
2072,0.5035634
2073.5,1.029022
2075.1,-1.112652
2076.6,2.8404
2078.2,-2.33384
2079.7,0.2581982
2081.3,2.22324
2082.8,1.92698
2084.4,3.408734
2085.9,4.91398
2087.4,1.31392
2089,3.44618
2090.5,4.797208
2092.1,2.881968
2093.6,2.54468
2095.1,1.30154
2096.7,2.343026
2098.2,5.49652
2099.7,0.99844
2101.3,1.168722
2102.8,5.87632
2104.3,5.171056
2105.9,5.363816
2107.4,4.651726
2108.9,4.2374942
2110.5,2.0057
2112,5.467596
2113.5,5.76262
2115.1,5.89574
2116.6,2.889986
2118.1,7.04284
2119.6,5.06418
2121.2,5.9585
2122.7,6.43706
2124.2,2.83774
2125.7,6.3266188
2127.3,10.26638
2128.8,13.6866
2130.3,19.6482
2131.8,22.8082
2133.3,35.0248
2134.9,56.949
2136.4,78.812
2137.9,93.8954
2139.4,101.5672
2140.9,93.2042
2142.4,80.0678
2144,57.568
2145.5,34.7164
2147,26.5828
2148.5,16.7098
2150,12.88414
2151.5,12.48396
2153,11.5685
2154.5,9.57612
2156,5.40216
2157.6,3.36134
2159.1,3.88145
2160.6,3.114558
2162.1,0.577088
2163.6,-0.554414
2165.1,0.464036
2166.6,2.235108
2168.1,1.20613
2169.6,-3.53042
2171.1,3.3158406
2172.6,2.63776
2174.1,3.186112
2175.6,1.9193
2177.1,0.1927182
2178.6,1.59732
2180.1,-0.132648
2181.6,-0.959972
2183.1,-2.82388
2184.6,-1.848096
2186.1,-2.179108
2187.5,-3.83144
2189,-0.411618
2190.5,2.10284
2192,0.81908
2193.5,0.4905
2195,-0.0183263999999999
2196.5,2.07428
2198,-0.549558
2199.5,-0.401454
2201,-4.2126
2202.4,-1.892354
2203.9,-1.448796
2205.4,-2.940832
2206.9,-0.670828
2208.4,-1.93867
2209.9,2.0607
2211.3,-1.782852
2212.8,-0.133816
2214.3,-5.51238
2215.8,1.808186
2217.3,-2.1931
2218.7,-2.4894
2220.2,-0.49401
2221.7,-2.19362
2223.2,-0.7342284
2224.6,-1.77334
2226.1,-2.431078
2227.6,0.7718626
2229.1,-1.76532844
2230.5,-3.686934
2232,-0.60271
2233.5,-1.487956
2234.9,-1.0926046
2236.4,-1.605294
2237.9,-0.20928
2239.3,0.1526
2240.8,3.345238
2242.3,0.92242
2243.7,0.62678
2245.2,0.24994
2246.7,-2.821596
2248.1,-2.5413
2249.6,-0.8078874
2251.1,-2.92064
2252.5,0.935716
2254,-0.60245
2255.4,1.926227
2256.9,0.476738
2258.3,-1.52454
2259.8,0.118498
2261.3,-1.30468
2262.7,1.0981
2264.2,-1.8758
2265.6,0.257114
2267.1,-0.944558
2268.5,-0.580742
2270,-0.296558
2271.4,-0.3224802
2272.9,-1.657966
2274.3,0
2275.8,-0.35666
2277.2,-2.705274
2278.7,-1.5407
2280.1,0.2281616
2281.6,-1.47664
2283,-1.486166
2284.5,-2.11969
2285.9,1.32374
2287.4,-2.155412
2288.8,1.40546
2290.2,0.044692
2291.7,-1.61884
2293.1,0.154456
2294.6,-0.511522
2296,-0.367846
2297.4,3.518186
2298.9,-0.38358
2300.3,-1.337896
2301.7,-0.982892
2303.2,-1.280278
2304.6,-2.034018
2306,-1.279466
2307.5,-0.947626
2308.9,-0.54258
2310.3,-1.585258
2311.8,0.4315896
2313.2,1.53884
2314.6,0.621438
2316.1,-0.269098
2317.5,1.95227
2318.9,-1.004312
2320.3,2.164662
2321.8,1.33549
2323.2,7.18106
2324.6,10.4309
2326,14.65504
2327.5,23.0126
2328.9,30.66
2330.3,29.1414
2331.7,21.38
2333.2,14.38638
2334.6,6.96382
2336,2.98436
2337.4,-0.0363800000000003
2338.8,2.076038
2340.2,-0.45236
2341.7,-0.45409
2343.1,1.414438
2344.5,1.003942
2345.9,2.15288
2347.3,-1.6678
2348.7,3.875944
2350.1,-0.5057482
2351.6,2.16302
2353,1.938648
2354.4,-1.24116
2355.8,-2.325038
2357.2,1.34674
2358.6,-3.68482
2360,1.042724
2361.4,3.739488
2362.8,2.72252
2364.2,-0.35824
2365.6,2.502966
2367,1.23742
2368.4,0.425776
2369.8,2.39996
2371.2,0.22194
2372.6,0.6994
2374,3.593684
2375.4,0.0908600000000003
2376.8,2.2734334
2378.2,1.41426
2379.6,1.793278
2381,4.57922
2382.4,2.46928
2383.8,0.7629
2385.2,2.187816
2386.6,2.260688
2388,0.17377
2389.4,-1.535817
2390.8,0.673934
2392.1,0.7619
2393.5,1.09018
2394.9,2.816884
2396.3,-0.181092
2397.7,-0.69248
2399.1,-0.15908
2400.5,0.68486
2401.9,-1.80654
2403.2,-2.681276
2404.6,-0.760628
2406,-3.6463
2407.4,2.660432
2408.8,0.646462
2410.2,0.36519
2411.5,-0.44228
2412.9,-2.355622
2414.3,-1.755858
2415.7,0
2417,-1.09382
2418.4,1.72214
2419.8,-0.8141648
2421.2,-0.04982
2422.5,0.59128
2423.9,1.7444524
2425.3,-0.323718
2426.7,-1.478362
2428,-0.543488
2429.4,0.289162
2430.8,-0.713448
2432.1,-0.33846
2433.5,-3.030378
2434.9,-2.47254
2436.2,-1.89126
2437.6,0.167272
2439,-0.82763
2440.3,0.014562
2441.7,-1.382554
2443.1,0.0223199999999999
2444.4,-0.073734
2445.8,-1.49346
2447.2,-2.78456
2448.5,-0.667468
2449.9,-2.275742
2451.2,-0.653066
2452.6,2.3153668
2454,-0.66929
2455.3,0.0315580000000001
2456.7,-0.43794
2458,-2.626208
2459.4,1.00884
2460.7,1.333082
2462.1,0.3097582
2463.4,-0.21751
2464.8,-0.1793
2466.1,0.43912
2467.5,1.117332
2468.8,-0.9484
2470.2,-1.664556
2471.5,3.71568
2472.9,0.43364
2474.2,-0.64524
2475.6,1.5698296
2476.9,-0.649866
2478.3,2.153034
2479.6,1.6881
2481,0.388916
2482.3,0.44778
2483.6,-0.97092
2485,0.93271
2486.3,-1.444
2487.7,0.351208
2489,-0.9002972
2490.3,1.7926
2491.7,-0.096158
2493,1.720694
2494.4,-1.102394
2495.7,2.485466
2497,-0.2367
2498.4,0.910478
2499.7,0.4443
2501,-0.67548
2502.4,-0.788636
2503.7,-1.81746
2505,-1.457116
2506.4,2.75164
2507.7,-1.2987
2509,0.91744
2510.3,-1.481324
2511.7,-2.1079936
2513,-1.7385
2514.3,-0.813104
2515.6,-2.29508
2517,-2.14616
2518.3,-1.57198
2519.6,0.087382
2520.9,0
2522.3,0.70688
2523.6,-0.72904
2524.9,1.269836
2526.2,0.690358
2527.5,1.611956
2528.9,-0.28358
2530.2,-0.541314
2531.5,-2.077472
2532.8,1.621274
2534.1,-0.671948
2535.4,-0.0122599999999998
2536.8,-2.19955
2538.1,-0.440204
2539.4,0.155282
2540.7,-1.6051344
2542,-0.218341
2543.3,-2.871832
2544.6,0.57576
2545.9,1.692872
2547.2,-1.35782
2548.6,1.022986
2549.9,-0.156454
2551.2,1.82103
2552.5,1.902424
2553.8,1.1861788
2555.1,2.674436
2556.4,1.855076
2557.7,0.76115
2559,2.446402
2560.3,1.287618
2561.6,3.10386
2562.9,-1.579252
2564.2,3.4498608
2565.5,0.218364
2566.8,0.0922460000000001
2568.1,1.3204538
2569.4,3.82986
2570.7,1.057564
2572,2.11824
2573.3,4.631706
2574.6,2.688
2575.9,4.55744
2577.1,3.8697
2578.4,-0.16608
2579.7,-0.434074
2581,-0.552524
2582.3,2.95288
2583.6,1.386574
2584.9,-0.74362
2586.2,0.217066
2587.5,-0.541962
2588.7,-0.98917
2590,2.829316
2591.3,0.45218
2592.6,1.50737
2593.9,2.688742
2595.2,1.64338
2596.4,1.146762
2597.7,-0.251434
2599,1.63988
2600.3,0.2042292
2601.6,3.000214
2602.8,0.0823882000000001
2604.1,0.72704
2605.4,0.9069
2606.7,2.730232
2608,-1.45878
2609.2,1.796438
2610.5,-0.450544
2611.8,-1.70294
2613,2.09636
2614.3,-0.222966
2615.6,1.205408
2616.9,1.07976
2618.1,-0.436788
2619.4,1.2443408
2620.7,2.005899
2621.9,0.223014
2623.2,1.55029
2624.5,-1.994988
2625.7,1.390002
2627,-5.26352
2628.3,-2.17688
2629.5,0
2630.8,0.111336
2632.1,-2.9349
2633.3,-2.846444
2634.6,-2.087476
2635.8,-1.77926
2637.1,-3.26014
2638.4,-2.481354
2639.6,-2.258932
2640.9,-1.92154
2642.1,-1.034066
2643.4,-0.492726
2644.6,-2.65132
2645.9,-1.191796
2647.2,-3.161776
2648.4,0.449602
2649.7,-0.74828
2650.9,-0.806546
2652.2,-2.219785
2653.4,-1.35306
2654.7,-0.51318
2655.9,-3.33132
2657.2,-3.26754
2658.4,-2.68904
2659.7,-0.5609782
2660.9,1.097268
2662.2,-0.015646
2663.4,-2.78962
2664.6,-1.72008
2665.9,-0.90342
2667.1,-0.2713026
2668.4,-2.31626
2669.6,-2.755706
2670.9,-1.59348
2672.1,-0.851016
2673.3,-1.357536
2674.6,-1.641314
2675.8,-1.735346
2677.1,-0.06744
2678.3,-1.476242
2679.5,-1.402544
2680.8,-1.405514
2682,-1.006242
2683.2,-0.20124
2684.5,-1.04019
2685.7,1.301088
2686.9,-0.96751
2688.2,1.26466
2689.4,1.76628
2690.6,0.77429
2691.9,-1.2467274
2693.1,0.144314
2694.3,-2.445
2695.5,0.880748
2696.8,1.074229
2698,2.35712
2699.2,0.02949
2700.4,2.6151
2701.7,-1.11129
2702.9,-0.162856
2704.1,0.123514
2705.3,0.828922
2706.6,-1.443414
2707.8,1.592014
2709,0.59461
2710.2,0.82048
2711.4,-0.3159096
2712.6,-0.154424
2713.9,-0.768924
2715.1,1.8316
2716.3,-0.859278
2717.5,-0.54566
2718.7,-0.18406
2719.9,0.098446
2721.2,-0.2908728
2722.4,0.7662576
2723.6,0.814446
2724.8,1.38358
2726,0
2727.2,-0.0969959999999999
2728.4,1.900996
2729.6,1.63123
2730.8,3.49528
2732,-0.619488
2733.3,-0.53658
2734.5,-0.260464
2735.7,2.427
2736.9,1.9341
2738.1,1.431596
2739.3,2.0854218
2740.5,0.65576
2741.7,0.32534
2742.9,0.554858
2744.1,0.696014
2745.3,0.77066
2746.5,0.6451076
2747.7,2.05412
2748.9,2.045728
2750.1,1.729646
2751.3,1.007038
2752.5,-1.6924
2753.7,0.6437856
2754.9,0.688676
2756,3.823772
2757.2,1.02728
2758.4,1.615394
2759.6,1.318846
2760.8,2.8997
2762,2.06010388
2763.2,1.45368
2764.4,1.057498
2765.6,0.1261662
2766.8,2.74702
2767.9,3.113342
2769.1,1.501378
2770.3,2.42274
2771.5,4.13962
2772.7,2.1082496
2773.9,3.91432
2775.1,2.119178
2776.2,3.01874
2777.4,4.18642
2778.6,1.59147
2779.8,5.87172
2781,1.7332
2782.1,2.46721
2783.3,4.89654
2784.5,4.81298
2785.7,2.256928
2786.8,4.45254
2788,3.85902
2789.2,3.25516
2790.4,3.248462
2791.5,0.435462
2792.7,2.141866
2793.9,1.488052
2795.1,1.30496
2796.2,-0.0835220000000001
2797.4,1.69104
2798.6,0.15987
2799.7,1.445124
2800.9,0.96126
2802.1,2.31508
2803.2,-0.160506
2804.4,0.93043
2805.6,1.68492
2806.7,0.840108
2807.9,1.155442
2809.1,1.32396
2810.2,2.511722
2811.4,3.142852
2812.6,2.503284
2813.7,3.075548
2814.9,3.67442
2816,0.820942
2817.2,6.4732
2818.4,0
2819.5,1.330856
2820.7,2.341994
2821.8,5.184514
2823,3.873182
2824.1,3.02324
2825.3,3.146602
2826.4,1.68276
2827.6,3.124074
2828.7,3.71994
2829.9,2.47278
2831,4.32568
2832.2,3.6912056
2833.3,-0.319252
2834.5,2.5802084
2835.6,0.86764
2836.8,0.585996
2837.9,-0.92878
2839.1,1.83466
2840.2,2.338
2841.4,3.040418
2842.5,1.858776
2843.7,1.1096
2844.8,1.428012
2845.9,2.33598
2847.1,1.55032
2848.2,1.393522
2849.4,-2.4627
2850.5,1.304856
2851.7,1.531766
2852.8,-2.405586
2853.9,0.153372
2855.1,0.397048
2856.2,-1.854696
2857.3,0.646134
2858.5,0.4339962
2859.6,-0.834228
2860.7,0.096678
2861.9,-0.9136
2863,-1.027208
2864.1,0.9862162
2865.3,-0.788222
2866.4,-1.632374
2867.5,0.63388
2868.7,-0.140808
2869.8,1.695474
2870.9,-1.009938
2872,-0.8024632
2873.2,-1.483894
2874.3,-1.312492
2875.4,-0.128716
2876.5,1.372932
2877.7,0.04554
2878.8,-2.8750986
2879.9,1.362932
2881,-1.283212
2882.2,3.96172
2883.3,1.792594
2884.4,2.728072
2885.5,0.90676
2886.6,1.7932228
2887.8,-0.88046
2888.9,1.384834
2890,3.98348
2891.1,6.1794
2892.2,5.327
2893.3,4.0007356
2894.4,4.557146
2895.6,5.94438
2896.7,5.86816
2897.8,6.19234
2898.9,6.72344
2900,8.13906
2901.1,9.55958
2902.2,10.75654
2903.3,13.48892
2904.4,11.78182
2905.6,12.05952
2906.7,12.86132
2907.8,12.64222
2908.9,15.27904
2910,17.10702
2911.1,19.8866
2912.2,21.3994
2913.3,19.6286
2914.4,24.9734
2915.5,23.3058
2916.6,23.2088
2917.7,23.1062
2918.8,24.0596
2919.9,28.6134
2921,30.5552
2922.1,28.5662
2923.2,30.2902
2924.3,31.296
2925.4,37.021
2926.5,37.8528
2927.6,37.582
2928.7,37.5074
2929.8,38.8778
2930.8,39.0202
2931.9,39.2932
2933,43.0618
2934.1,42.3344
2935.2,42.7558
2936.3,45.4266
2937.4,47.5434
2938.5,48.1234
2939.6,45.0638
2940.6,49.1096
2941.7,49.1272
2942.8,48.6886
2943.9,51.1552
2945,52.6928
2946.1,52.5796
2947.2,49.9624
2948.2,51.3622
2949.3,49.922
2950.4,48.8884
2951.5,47.7314
2952.6,47.2442
2953.6,43.7404
2954.7,43.3606
2955.8,42.269
2956.9,40.4704
2957.9,40.5254
2959,36.2392
2960.1,35.0582
2961.2,34.7092
2962.2,33.216
2963.3,35.0338
2964.4,28.8012
2965.5,30.0462
2966.5,28.604
2967.6,27.1204
2968.7,24.86144
2969.7,21.00776
2970.8,26.6584
2971.9,24.4972
2973,23.2848
2974,20.9566
2975.1,22.9126
2976.2,21.4464
2977.2,19.6278
2978.3,20.465
2979.3,18.887
2980.4,17.5826
2981.5,18.259
2982.5,19.7628
2983.6,20.589
2984.7,19.6596
2985.7,18.54936
2986.8,19.9725
2987.8,19.0294
2988.9,17.12618
2989.9,18.27704
2991,19.5736
2992.1,19.5733
2993.1,21.9512
2994.2,23.0368
2995.2,22.64108
2996.3,24.6056
2997.3,21.1286
2998.4,23.8446
2999.4,22.4634
3000.5,25.2676
3001.5,23.033
3002.6,23.7952
3003.6,26.009
3004.7,21.4334
3005.7,23.8488
3006.8,26.9994
3007.8,27.1096
3008.9,27.3806
3009.9,30.4822
3011,27.3766
3012,28.9222
3013,27.354
3014.1,31.6434
3015.1,34.7698
3016.2,34.2584
3017.2,34.4226
3018.2,36.848
3019.3,35.3506
3020.3,38.5464
3021.4,38.8572
3022.4,40.8636
3023.4,36.8066
3024.5,38.902
3025.5,42.8298
3026.5,42.164
3027.6,39.8236
3028.6,44.3158
3029.6,45.062
3030.7,47.938
3031.7,44.6558
3032.7,49.144
3033.8,47.5496
3034.8,50.7812
3035.8,54.9732
3036.9,52.2358
3037.9,52.5752
3038.9,53.5744
3039.9,54.9958
3041,58.1146
3042,55.4876
3043,57.321
3044,57.0372
3045.1,59.0348
3046.1,61.6326
3047.1,62.8222
3048.1,64.8418
3049.2,66.9636
3050.2,66.5398
3051.2,65.5712
3052.2,69.118
3053.2,70.9734
3054.3,71.6868
3055.3,71.9044
3056.3,71.5566
3057.3,74.2854
3058.3,80.0484
3059.3,77.8312
3060.3,81.3618
3061.4,81.5644
3062.4,79.606
3063.4,80.8878
3064.4,81.6998
3065.4,84.8424
3066.4,85.853
3067.4,88.1322
3068.4,88.8886
3069.5,89.0652
3070.5,92.256
3071.5,94.1134
3072.5,95.3658
3073.5,93.5278
3074.5,97.2502
3075.5,97.6034
3076.5,99.8814
3077.5,101.8154
3078.5,107.0316
3079.5,108.0368
3080.5,106.8604
3081.5,109.2148
3082.5,109.219
3083.5,105.4478
3084.5,114.348
3085.5,112.384
3086.5,115.266
3087.5,118.69
3088.5,117.164
3089.5,119.3
3090.5,120.75
3091.5,122.55
3092.5,124.86
3093.5,126.638
3094.5,129.9
3095.5,128.414
3096.4,133.256
3097.4,131.798
3098.4,131.846
3099.4,138.356
3100.4,141.86
3101.4,139.942
3102.4,141.808
3103.4,144.858
3104.4,139.658
3105.3,145.59
3106.3,150.868
3107.3,153.338
3108.3,155.288
3109.3,155.74
3110.3,157.772
3111.3,159.658
3112.2,162.642
3113.2,163.96
3114.2,167.698
3115.2,168.284
3116.2,169.072
3117.1,167.266
3118.1,172.504
3119.1,173.89
3120.1,180.408
3121,179.326
3122,183.456
3123,179.882
3124,184.316
3124.9,186.28
3125.9,186.114
3126.9,190.884
3127.9,193.596
3128.8,195.8
3129.8,194.342
3130.8,197.716
3131.7,199.872
3132.7,201.436
3133.7,200.578
3134.7,202.518
3135.6,206.596
3136.6,206.534
3137.6,206.286
3138.5,207.694
3139.5,210.3
3140.4,210.004
3141.4,211.636
3142.4,215.24
3143.3,216.864
3144.3,219
3145.3,218.362
3146.2,221.028
3147.2,220.526
3148.1,221.762
3149.1,223.052
3150.1,224.83
3151,227.128
3152,228.514
3152.9,226.418
3153.9,231.55
3154.8,235.22
3155.8,233.338
3156.7,231.47
3157.7,239.932
3158.6,238.09
3159.6,232.22
3160.6,241.754
3161.5,242.516
3162.5,242.812
3163.4,242.906
3164.4,244.658
3165.3,238.742
3166.2,243.904
3167.2,241.762
3168.1,244.724
3169.1,245.306
3170,249.686
3171,250.816
3171.9,253.044
3172.9,246.312
3173.8,250.394
3174.7,250.468
3175.7,251.004
3176.6,251.272
3177.6,252.47
3178.5,255.066
3179.5,253.294
3180.4,250.038
3181.3,253.17
3182.3,255.574
3183.2,253.76
3184.1,257.114
3185.1,258.75
3186,251.204
3186.9,254.578
3187.9,259.138
3188.8,255.088
3189.7,253.37
3190.7,252.964
3191.6,254.968
3192.5,254.158
3193.5,253.016
3194.4,255.836
3195.3,254.356
3196.3,254.41
3197.2,252.906
3198.1,250.836
3199,251.836
3200,252.81
3200.9,247.188
3201.8,251.354
3202.7,246.978
3203.7,248.094
3204.6,246.204
3205.5,247.308
3206.4,242.358
3207.3,242.17
3208.3,243.88
3209.2,238.554
3210.1,239.158
3211,234.892
3211.9,232.636
3212.9,231.39
3213.8,228.796
3214.7,226.774
3215.6,229.188
3216.5,226.096
3217.4,225.956
3218.4,225.486
3219.3,220.906
3220.2,217.514
3221.1,215.686
3222,214.346
3222.9,211.638
3223.8,206.674
3224.7,204.998
3225.6,206.852
3226.6,203.352
3227.5,199.078
3228.4,198.576
3229.3,195.798
3230.2,194.542
3231.1,193.928
3232,186.398
3232.9,183.2
3233.8,180.466
3234.7,175.72
3235.6,169.846
3236.5,168.638
3237.4,167.13
3238.3,164.852
3239.2,157.912
3240.1,150.302
3241,152.782
3241.9,145.146
3242.8,142.33
3243.7,132.97
3244.6,131.92
3245.5,128.43
3246.4,119.756
3247.3,117.054
3248.2,105.922
3249.1,97.45
3250,84.8834
3250.9,79.9894
3251.8,68.2282
3252.7,56.3484
3253.5,41.2964
3254.4,27.269
3255.3,11.8959
3256.2,-8.22982
