250.34,-5.3289925
252.57,-11.23185
254.8,0
257.03,-2.6252825
259.26,-0.0171749999999999
261.48,-1.7094
263.71,-0.435775
265.94,-0.7690915
268.16,7.8815
270.39,2.1383625
272.61,-0.63682775
274.84,-2.982275
277.06,1.047765
279.28,1.5414
281.51,5.792125
283.73,6.0536
285.95,4.307075
288.17,4.189325
290.39,4.726575
292.61,0.9027
294.83,-1.338875
297.05,8.526675
299.27,7.87518
301.48,13.32762
303.7,13.5266
305.91,10.799875
308.13,6.4666275
310.35,9.6817875
312.56,6.71395
314.77,3.132425
316.99,2.008075
319.2,0.127725
321.41,1.788365
323.62,4.0991925
325.83,-0.0899535
328.04,1.095475
330.25,-3.2268
332.46,-0.582375
334.67,10.559825
336.88,2.696265
339.08,-5.705875
341.29,3.2928
343.5,0.86438
345.7,13.005975
347.91,15.8235
350.11,28.525
352.31,47.418
354.52,49.419
356.72,58.112
358.92,50.07475
361.12,36.54725
363.32,28.22375
365.52,37.463
367.72,28.826
369.92,19.4895
372.12,27.748
374.32,46.08825
376.51,84.0345
378.71,113.0175
380.9,98.8425
383.1,60.99325
385.29,31.68
387.49,18.302925
389.68,7.330825
391.87,3.581375
394.07,-2.786475
396.26,2.40085
398.45,5.63355
400.64,9.6883925
402.83,13.2068
405.02,24.85425
407.21,37.24025
409.39,64.43825
411.58,138.24
413.77,373.2425
415.95,646.3375
418.14,700
420.32,477.7725
422.51,245.9825
424.69,130.5275
426.87,92.8725
429.06,88.7355
431.24,74.69675
433.42,56.16075
435.6,36.012
437.78,11.88755
439.96,3.07
442.14,-0.0547625
444.31,1.74375
446.49,21.376
448.67,36.522
450.84,29.119
453.02,17.1414
455.19,8.7191
457.37,0.9897475
459.54,-4.387075
461.71,-0.5316775
463.89,-3.45685
466.06,1.515975
468.23,-0.27596125
470.4,-2.6854
472.57,-11.3349
474.74,-4.9825975
476.91,-1.972975
479.07,-2.1874375
481.24,5.190975
483.41,6.975475
485.57,9.67455
487.74,4.6181
489.9,9.93945
492.07,0.3088925
494.23,-0.1603475
496.4,-2.575465
498.56,-8.60035
500.72,-8.145225
502.88,-14.85725
505.04,-12.4848
507.2,-14.709925
509.36,-2.446075
511.52,-11.994525
513.68,-3.361925
515.83,0.43913
517.99,2.161025
520.14,1.9748
522.3,-10.07455
524.45,0.2731185
526.61,-0.458075
528.76,-1.012625
530.91,2.2193
533.07,9.03885
535.22,4.672125
537.37,3.245775
539.52,4.5173
541.67,6.8484
543.82,8.2078
545.97,8.40955
548.11,4.6772075
550.26,-0.66961
552.41,-0.8356575
554.55,0.975755
556.7,-3.7389
558.84,-3.06955
560.98,3.4506875
563.13,9.243375
565.27,11.311015
567.41,6.616825
569.55,26.7675
571.69,42.34075
573.83,85.476
575.97,126.1125
578.11,134.335
580.25,102.08725
582.39,75.403
584.52,79.2415
586.66,96.9835
588.79,89.81575
590.93,64.12125
593.06,40.16725
595.19,31.00825
597.33,14.3045
599.46,12.650875
601.59,7.876575
603.72,7.832875
605.85,6.17915
607.98,-0.075009
610.11,9.163625
612.24,7.11205
614.36,5.393725
616.49,2.078025
618.62,8.267625
620.74,2.1923
622.87,1.815975
624.99,0.5852425
627.11,-3.390725
629.24,-3.842325
631.36,-5.42585
633.48,6.38196
635.6,-4.0127775
637.72,2.044875
639.84,1.15065
641.96,0.02106725
644.08,-1.09625
646.2,-4.35675
648.31,-10.014
650.43,-6.189925
652.54,-1.78005
654.66,-6.5239
656.77,-9.3361825
658.89,-5.405875
661,-11.542325
663.11,-5.50195
665.22,-2.893225
667.33,2.500995
669.44,-1.185435
671.55,-3.920325
673.66,7.96575
675.77,6.515295
677.88,14.29965
679.98,22.97575
682.09,26.37875
684.2,40.55375
686.3,51.41125
688.4,62.11
690.51,69.8665
692.61,82.67025
694.71,83.5705
696.81,95.434
698.92,100.73675
701.02,110.79775
703.11,117.1425
705.21,120.01
707.31,123.6825
709.41,134.6675
711.51,133.03
713.6,125.9675
715.7,114.1925
717.79,102.26625
719.89,91.43725
721.98,78.737
724.07,66.60375
726.16,57.43825
728.25,52.7005
730.35,42.87375
732.44,45.505
734.52,50.38975
736.61,58.127
738.7,73.066
740.79,96.20075
742.87,124.3675
744.96,167.8025
747.05,211.7775
749.13,235.945
751.21,237.3
753.3,207.5775
755.38,161.84
757.46,117.675
759.54,83.32925
761.62,50.6675
763.7,33.504
765.78,21.99225
767.86,11.654175
769.94,8.45565
772.01,2.0782
774.09,-1.24135
776.17,3.4322725
778.24,-4.351475
780.32,-2.874025
782.39,-0.550402500000001
784.46,1.653
786.53,7.294315
788.61,1.617465
790.68,2.231975
792.75,1.5923225
794.82,7.8869
796.89,4.162925
798.95,0.5997
801.02,2.248740875
803.09,3.5855525
805.15,1.940325
807.22,8.310855
809.28,10.66955
811.35,12.68985
813.41,22.2925
815.47,19.939
817.53,8.316
819.6,4.031875
821.66,7.166475
823.72,5.3916075
825.78,0.6508025
827.83,3.623325
829.89,0.0128249999999999
831.95,4.9556
834,2.465585
836.06,-2.615375
838.12,2.698295
840.17,5.753625
842.22,2.886
844.28,5.063625
846.33,-3.176325
848.38,2.204325
850.43,3.06915
852.48,1.0766575
854.53,2.893925
856.58,7.3589675
858.63,1.353075
860.67,8.52775
862.72,8.8923
864.77,5.558375
866.81,0.746032500000001
868.86,2.98763
870.9,3.104405
872.94,2.46189075
874.98,-0.669788525
877.03,-3.775025
879.07,-1.7444475
881.11,-4.7576125
883.15,2.5378505
885.19,2.50335
887.22,4.81615
889.26,7.7240825
891.3,5.37815
893.33,2.906625
895.37,0.590475
897.4,2.6599975
899.44,0
901.47,1.297325
903.5,2.08259
905.54,6.18085
907.57,-1.73775
909.6,4.94035
911.63,3.423925
913.66,2.6018
915.68,6.605275
917.71,-0.7108625
919.74,1.089
921.76,0.291425
923.79,-5.0691
925.82,-1.226825
927.84,6.4564
929.86,4.4719575
931.89,7.485925
933.91,10.029275
935.93,3.1389525
937.95,9.10685
939.97,4.683125
941.99,1.548055
944.01,-3.188175
946.02,-1.424775
948.04,-1.4965775
950.06,3.4609
952.07,-1.2737725
954.09,1.746625
956.1,2.064995
958.12,0.228345
960.13,3.1452125
962.14,-1.8422
964.15,-0.2169
966.16,-2.1223
968.17,-3.71145
970.18,0.364285
972.19,-1.2368275
974.2,-4.32155
976.2,-1.58095
978.21,1.43164
980.22,-0.0500750000000001
982.22,3.7054775
984.22,5.67085
986.23,5.287075
988.23,1.63159
990.23,8.337125
992.23,10.065425
994.24,0.0219999999999999
996.23,1.5727125
998.23,4.4146775
1000.2,6.30595
1002.2,9.695575
1004.2,9.37225
1006.2,12.291325
1008.2,18.21375
1010.2,16.5595
1012.2,16.193475
1014.2,18.464225
1016.2,18.14775
1018.2,20.7595
1020.2,18.13955
1022.2,23.145
1024.2,28.0205
1026.1,30.798
1028.1,31.50775
1030.1,36.26025
1032.1,38.194
1034.1,43.60625
1036.1,44.38875
1038.1,43.334
1040.1,40.20375
1042,38.12075
1044,36.50825
1046,41.5165
1048,40.9195
1050,41.48325
1051.9,40.9835
1053.9,43.535
1055.9,40.6345
1057.9,42.70425
1059.9,38.981
1061.8,35.31525
1063.8,31.00825
1065.8,27.751
1067.8,30.30925
1069.7,22.664
1071.7,27.87275
1073.7,22.75625
1075.6,18.915
1077.6,18.8815
1079.6,17.4935
1081.5,14.35675
1083.5,8.67615
1085.5,5.267475
1087.5,1.761995
1089.4,-1.343505
1091.4,0.0473600000000001
1093.3,-1.692575
1095.3,-1.725265
1097.3,-2.6846
1099.2,0.8867
1101.2,-0.340265
1103.2,-1.7409
1105.1,-1.19049775
1107.1,-2.441
1109,0.0339749999999999
1111,-6.282825
1113,-0.06393125
1114.9,0.172632
1116.9,-4.0453
1118.8,-9.420675
1120.8,-3.8054575
1122.7,1.0059625
1124.7,-3.882325
1126.6,-1.5990175
1128.6,1.982
1130.5,-0.0219999999999999
1132.5,4.40175
1134.4,-1.482855
1136.4,6.7763625
1138.3,5.558825
1140.3,9.850775
1142.2,6.31155
1144.2,13.13885
1146.1,12.326725
1148.1,11.264095
1150,16.38975
1151.9,18.658
1153.9,20.93275
1155.8,18.62575
1157.8,18.476
1159.7,26.109
1161.6,24.09725
1163.6,29.2355
1165.5,32.8735
1167.5,36.20175
1169.4,42.0925
1171.3,47.8365
1173.3,50.49175
1175.2,53.18175
1177.1,55.035
1179.1,60.8405
1181,69.06025
1182.9,73.783
1184.9,82.97425
1186.8,90.495
1188.7,97.3545
1190.6,104.85575
1192.6,118.18
1194.5,128.8925
1196.4,137.68
1198.4,142.145
1200.3,151.7675
1202.2,159.37
1204.1,164.4925
1206,174.405
1208,181.0075
1209.9,182.54
1211.8,188.7025
1213.7,192.3575
1215.6,192.8775
1217.6,197.295
1219.5,195.5675
1221.4,195.0475
1223.3,185.6025
1225.2,185.4375
1227.1,180.1225
1229.1,172.945
1231,168.54
1232.9,163.3275
1234.8,152.7925
1236.7,149.055
1238.6,144.465
1240.5,134.77
1242.4,132.04
1244.3,125.9425
1246.2,118.9825
1248.1,114.3025
1250.1,111.5475
1252,103.9975
1253.9,98.1355
1255.8,102.19025
1257.7,99.52925
1259.6,106.5975
1261.5,103.52275
1263.4,106.695
1265.3,114.585
1267.2,121.1275
1269.1,125.3825
1271,131.255
1272.9,132.575
1274.8,138.65
1276.6,138.605
1278.5,131.3775
1280.4,121.765
1282.3,113.9625
1284.2,103.48775
1286.1,94.5875
1288,83.192
1289.9,79.22275
1291.8,69.06
1293.7,65.1565
1295.6,62.39875
1297.4,60.86925
1299.3,55.7435
1301.2,56.9375
1303.1,56.07125
1305,50.45425
1306.9,53.33175
1308.7,49.15875
1310.6,46.4115
1312.5,49.31475
1314.4,50.02825
1316.3,47.63675
1318.1,44.67975
1320,42.7935
1321.9,46.49575
1323.8,44.08925
1325.7,45.41675
1327.5,50.04025
1329.4,51.6005
1331.3,51.044
1333.1,54.14025
1335,55.91
1336.9,55.79775
1338.8,60.22125
1340.6,64.5345
1342.5,69.73625
1344.4,77.94325
1346.2,88.66175
1348.1,93.90125
1350,100.39425
1351.8,110.6775
1353.7,110.2525
1355.6,111.865
1357.4,113.7075
1359.3,109.2175
1361.1,108.705
1363,117.025
1364.9,127.76
1366.7,141.8625
1368.6,158.53
1370.4,182.65
1372.3,209.83
1374.2,243.4325
1376,283.6975
1377.9,339.8425
1379.7,401.1
1381.6,451.1525
1383.4,464.6325
1385.3,441.045
1387.1,397.765
1389,353.5725
1390.8,317.2675
1392.7,295.9675
1394.5,295.315
1396.4,300.345
1398.2,313.605
1400.1,317.1525
1401.9,305.7025
1403.8,280.1975
1405.6,243.4175
1407.4,210.305
1409.3,173.4525
1411.1,144.3775
1413,119.99
1414.8,101.2365
1416.6,91.90075
1418.5,77.3085
1420.3,67.4305
1422.2,56.6025
1424,53.93675
1425.8,45.37275
1427.7,35.48525
1429.5,33.8585
1431.3,28.08525
1433.2,22.447
1435,21.91725
1436.8,20.451
1438.7,15.172
1440.5,15.69675
1442.3,7.24725
1444.1,7.7286
1446,8.5899
1447.8,9.52489
1449.6,6.108575
1451.4,4.71985
1453.3,-0.48175
1455.1,5.011575
1456.9,-2.7795675
1458.7,-3.503225
1460.6,0.49945
1462.4,-2.4974125
1464.2,-3.9515685
1466,-5.23385
1467.8,-8.9276
1469.6,-8.97665
1471.5,-8.691175
1473.3,-6.84843
1475.1,-13.63975
1476.9,-11.908475
1478.7,-10.8605
1480.5,-10.644825
1482.4,-10.637
1484.2,-7.572775
1486,-5.843925
1487.8,-9.0161
1489.6,-12.192075
1491.4,-11.6579
1493.2,-7.6113
1495,-9.188075
1496.8,-9.582975
1498.6,-8.442475
1500.4,-5.864975
1502.2,-8.90975
1504,-9.342125
1505.8,-6.86337
1507.6,-6.207575
1509.4,-4.7336
1511.2,-5.251725
1513,-6.589425
1514.8,-6.838925
1516.6,-6.9458
1518.4,-2.14135
1520.2,-0.300225
1522,-3.6350125
1523.8,-7.7459
1525.6,-4.845015
1527.4,-4.593745
1529.2,-2.1449
1531,0.15904
1532.8,-5.677275
1534.6,3.6322975
1536.4,-0.64735
1538.2,0.36199
1539.9,5.2415
1541.7,5.48348
1543.5,5.777225
1545.3,8.07865
1547.1,10.9075
1548.9,16.91345
1550.7,24.226
1552.4,30.1105
1554.2,37.587
1556,42.6585
1557.8,43.04175
1559.6,41.05225
1561.3,38.25075
1563.1,39.83675
1564.9,45.04525
1566.7,47.0675
1568.4,51.527
1570.2,61.06375
1572,63.96625
1573.8,68.0785
1575.5,67.96125
1577.3,80.72825
1579.1,87.1155
1580.9,96.0605
1582.6,100.6105
1584.4,108.2875
1586.2,113.7325
1587.9,121.4075
1589.7,132.1575
1591.5,133.7875
1593.2,145.0925
1595,153.78
1596.8,161.665
1598.5,161.8425
1600.3,178.9825
1602,187.67
1603.8,197.905
1605.6,214.9275
1607.3,223.2125
1609.1,227.8625
1610.8,239.2575
1612.6,249.1525
1614.4,264.305
1616.1,265.51
1617.9,276.5075
1619.6,284.0225
1621.4,291.8125
1623.1,301.9725
1624.9,312.15
1626.6,320.21
1628.4,326.78
1630.1,333.0875
1631.9,334.695
1633.6,338.5575
1635.4,347.6675
1637.1,344.5875
1638.9,351.3775
1640.6,355.8275
1642.4,356.4425
1644.1,356.595
1645.8,355.495
1647.6,356.9275
1649.3,357.0775
1651.1,358.45
1652.8,356.7925
1654.6,354.005
1656.3,351.95
1658,346.725
1659.8,346.795
1661.5,341.94
1663.2,342.4575
1665,337.425
1666.7,332.9
1668.4,332.125
1670.2,327.375
1671.9,326.3825
1673.6,328.6175
1675.4,324.7725
1677.1,319.3225
1678.8,320.3125
1680.5,320.79
1682.3,319.6175
1684,315.3875
1685.7,319.6125
1687.5,327.6025
1689.2,331.3775
1690.9,337.8625
1692.6,342.715
1694.3,348.3675
1696.1,360.7925
1697.8,368.9475
1699.5,373.045
1701.2,381.3675
1702.9,389.2425
1704.7,395.655
1706.4,406.765
1708.1,414.1775
1709.8,415.615
1711.5,420.705
1713.2,422.1225
1714.9,421.2075
1716.7,418.325
1718.4,416.2525
1720.1,409.985
1721.8,399.9875
1723.5,395.1575
1725.2,384.01
1726.9,377.965
1728.6,366.6175
1730.3,350.9975
1732,343.3875
1733.7,328.895
1735.4,309.5925
1737.1,289.965
1738.8,273.7475
1740.6,250.13
1742.3,225.6575
1744,207.7625
1745.7,188.225
1747.3,166.345
1749,143.25
1750.7,127.5
1752.4,108.4925
1754.1,99.49325
1755.8,84.1505
1757.5,71.08525
1759.2,66.0615
1760.9,55.893
1762.6,46.284
1764.3,38.081
1766,38.57275
1767.7,31.55175
1769.4,27.43375
1771.1,22.587
1772.7,16.72675
1774.4,19.70325
1776.1,17.80575
1777.8,16.7625
1779.5,7.2103
1781.2,8.8445
1782.8,6.840925
1784.5,5.917675
1786.2,4.3998
1787.9,3.163675
1789.6,2.7533925
1791.2,-2.071225
1792.9,-1.354515
1794.6,-0.0839675000000001
1796.3,0.1095375
1798,-3.9138475
1799.6,-5.653225
1801.3,-7.2573
1803,-5.7308
1804.7,-5.53333475
1806.3,-9.110825
1808,-5.91135
1809.7,-8.959825
1811.3,-6.808825
1813,-5.557555
1814.7,-6.80695
1816.3,-3.84055
1818,-5.613925
1819.7,-4.4633
1821.3,-4.131375
1823,-4.880875
1824.7,-5.71535
1826.3,-5.7812
1828,-7.149475
1829.7,-3.45525
1831.3,-6.15065
1833,-4.0215375
1834.6,-1.696025
1836.3,-1.647
1838,-6.325975
1839.6,-3.62623
1841.3,-2.93344
1842.9,-1.7055975
1844.6,-0.231625
1846.2,2.3373725
1847.9,-3.601665
1849.5,-1.798705
1851.2,-3.158525
1852.8,-0.6763875
1854.5,2.806
1856.1,-1.8240635
1857.8,0.5931875
1859.4,3.080915
1861.1,0.3732825
1862.7,-0.873599999999999
1864.4,1.2034575
1866,1.64355
1867.7,1.16992
1869.3,3.417075
1871,1.46605
1872.6,4.74495
1874.2,3.4314675
1875.9,0.4815375
1877.5,3.2783
1879.2,0
1880.8,2.0331925
1882.4,-1.836
1884.1,1.427075
1885.7,3.5579125
1887.3,0.1946925
1889,-1.3160525
1890.6,-0.51716
1892.2,-4.02527
1893.9,-1.977675
1895.5,-4.54967
1897.1,-0.68757
1898.8,4.80282
1900.4,-0.8472425
1902,0.381685
1903.7,-1.5554675
1905.3,0.0371000000000001
1906.9,-0.265175
1908.5,-3.3290175
1910.2,0.2047875
1911.8,-0.241575
1913.4,-1.3341575
1915,2.538
1916.7,-0.3035775
1918.3,2.7174925
1919.9,1.713375
1921.5,-1.753375
1923.1,1.78465
1924.8,-2.3416
1926.4,2.6412
1928,3.218475
1929.6,3.79533
1931.2,-0.915075
1932.8,3.9729975
1934.4,3.655025
1936.1,3.5399875
1937.7,2.23116175
1939.3,3.736475
1940.9,3.2965625
1942.5,3.001825
1944.1,0.27955
1945.7,5.8709925
1947.3,2.6811125
1948.9,4.4766625
1950.5,2.088545
1952.1,-0.0954835
1953.8,2.0075625
1955.4,1.50991
1957,3.47035
1958.6,3.2725245
1960.2,2.372625
1961.8,3.03565
1963.4,2.9749
1965,0.4747725
1966.6,2.380785
1968.2,-1.915975
1969.8,1.8658175
1971.4,2.412255
1973,4.3265275
1974.5,2.00305
1976.1,0.806505
1977.7,2.8584275
1979.3,2.8537
1980.9,1.5788425
1982.5,0.85635
1984.1,-1.0384675
1985.7,3.6667625
1987.3,3.06560425
1988.9,1.500125
1990.5,-0.69705
1992,-0.7174275
1993.6,2.06547325
1995.2,0.9202225
1996.8,0.94136
1998.4,4.96665
2000,0.7912
2001.6,-0.1236675
2003.1,-1.3748825
2004.7,1.02724
2006.3,-0.55569
2007.9,-1.448545
2009.5,3.405875
2011,2.471678725
2012.6,4.476795
2014.2,0.6940325
2015.8,0.8192075
2017.3,-0.1969425
2018.9,-0.241662
2020.5,1.287775
2022.1,2.8553725
2023.6,5.209275
2025.2,3.4133625
2026.8,3.437605
2028.3,2.370685
2029.9,2.9034465
2031.5,0.182375
2033,3.30568
2034.6,4.5376465
2036.2,-0.0648774999999999
2037.7,3.926455
2039.3,3.92015
2040.9,2.4830725
2042.4,0.093672
2044,0.665875
2045.6,2.8852575
2047.1,3.909425
2048.7,5.50386
2050.2,0.8030575
2051.8,3.4353
2053.4,1.547
2054.9,1.51631925
2056.5,1.196025
2058,-0.396625
2059.6,-0.83031
2061.1,0.450425
2062.7,-0.193525
2064.2,2.7965
2065.8,-0.84519
2067.3,2.52775
2068.9,-1.221465
2070.4,-1.05865
2072,-0.160975
2073.5,-0.00729999999999986
2075.1,-0.400125
2076.6,1.4442
2078.2,-1.18405
2079.7,0.736685
2081.3,2.7241275
2082.8,4.122595
2084.4,5.525275
2085.9,0.5934075
2087.4,3.75063
2089,1.710275
2090.5,3.845225
2092.1,2.1189975
2093.6,3.45628
2095.1,5.180775
2096.7,0.1916
2098.2,2.51949
2099.7,7.041575
2101.3,2.097405
2102.8,4.116035
2104.3,2.844125
2105.9,3.368325
2107.4,8.957725
2108.9,3.2965375
2110.5,2.2157
2112,0.51565
2113.5,4.4981
2115.1,7.947825
2116.6,6.352
2118.1,4.807
2119.6,5.309125
2121.2,6.7
2122.7,6.84339
2124.2,8.8083
2125.7,7.81555
2127.3,5.795275
2128.8,8.8467
2130.3,12.500225
2131.8,18.097
2133.3,27.42625
2134.9,46.21325
2136.4,58.4895
2137.9,61.36525
2139.4,58.7125
2140.9,47.536
2142.4,34.2985
2144,21.8795
2145.5,10.6842
2147,13.47375
2148.5,11.7764
2150,9.6013
2151.5,9.98515
2153,9.389725
2154.5,10.649775
2156,3.5457
2157.6,3.257625
2159.1,1.7179175
2160.6,1.906207
2162.1,3.62675
2163.6,0.242925
2165.1,-0.204925
2166.6,-0.1015175
2168.1,1.9853375
2169.6,-0.8389275
2171.1,5.177875
2172.6,3.878375
2174.1,3.4332
2175.6,5.863475
2177.1,0.46737725
2178.6,2.088875
2180.1,-1.922075
2181.6,0.2436275
2183.1,-1.479625
2184.6,-1.249525
2186.1,0.413775
2187.5,1.6287575
2189,1.4909
2190.5,-1.25494775
2192,0.0596149999999999
2193.5,0.0235
2195,1.119925
2196.5,-2.54711875
2198,-0.272525
2199.5,-4.1337
2201,-1.8261675
2202.4,-0.2850725
2203.9,1.5669475
2205.4,-0.2557
2206.9,-2.1898075
2208.4,-0.641125
2209.9,2.5879675
2211.3,-2.16931
2212.8,-1.6618375
2214.3,-0.21265175
2215.8,-1.38455
2217.3,-0.79568925
2218.7,-3.317075
2220.2,-0.350125
2221.7,1.230375
2223.2,-0.430515
2224.6,0.7873575
2226.1,-1.9273525
2227.6,-2.019875
2229.1,-3.20553
2230.5,-2.78253
2232,-1.23755625
2233.5,-1.4027
2234.9,-0.3363575
2236.4,-2.320125
2237.9,1.349425
2239.3,-2.641875
2240.8,-0.8281825
2242.3,-0.8981025
2243.7,-2.9106
2245.2,-0.76783275
2246.7,-1.8054825
2248.1,-2.983825
2249.6,-3.38549725
2251.1,-3.597975
2252.5,2.70975
2254,-4.77116
2255.4,-4.495325
2256.9,-1.50214
2258.3,-1.10885
2259.8,0.0577250000000001
2261.3,-7.068675
2262.7,-2.93585
2264.2,-2.875425
2265.6,-1.18205
2267.1,-0.471
2268.5,-3.7865985
2270,-0.963825
2271.4,-3.3797125
2272.9,-1.0494
2274.3,0
2275.8,0.6600125
2277.2,-1.134045
2278.7,-2.1916525
2280.1,-2.0943525
2281.6,-6.495425
2283,-5.660675
2284.5,-2.0891275
2285.9,-2.82231
2287.4,-4.979975
2288.8,-1.2726975
2290.2,-2.788237
2291.7,-0.6984075
2293.1,-2.947605
2294.6,-0.096829
2296,-4.77324
2297.4,-3.0101
2298.9,0.0136500000000001
2300.3,-3.559125
2301.7,-2.32829
2303.2,-3.7635175
2304.6,-4.212775
2306,-3.409025
2307.5,0.5854125
2308.9,-3.1187
2310.3,-2.32462
2311.8,-1.788185
2313.2,-2.0975025
2314.6,-2.052755
2316.1,-2.3273275
2317.5,-1.95855
2318.9,-1.6221
2320.3,0.00388000000000005
2321.8,0.74248
2323.2,1.69955
2324.6,9.159025
2326,11.0374
2327.5,21.4245
2328.9,27.86175
2330.3,25.92125
2331.7,19.9195
2333.2,11.271075
2334.6,5.933575
2336,2.76082
2337.4,0.324885
2338.8,-1.76135
2340.2,-2.0629129775
2341.7,0.8849725
2343.1,-3.903375
2344.5,-0.2618425
2345.9,-3.6799
2347.3,-4.565875
2348.7,3.1800325
2350.1,-4.3564425
2351.6,-2.84688
2353,-0.695545
2354.4,0.9781
2355.8,-3.27706
2357.2,-5.6418
2358.6,-7.026275
2360,1.956745
2361.4,3.23129
2362.8,-0.418815
2364.2,2.3533525
2365.6,-4.7022275
2367,1.277435
2368.4,-1.37765
2369.8,1.714475
2371.2,-0.8544
2372.6,-1.268275
2374,-0.52335
2375.4,-1.246595
2376.8,0.67068
2378.2,-4.58938475
2379.6,1.77569
2381,2.7957925
2382.4,0.630375
2383.8,0.780675
2385.2,-3.082825
2386.6,-0.4731425
2388,0.156785
2389.4,-1.749225
2390.8,0.069725
2392.1,-0.276865
2393.5,-1.16569
2394.9,1.819675
2396.3,-0.6401925
2397.7,0.044894475
2399.1,-0.071215
2400.5,-1.5632565
2401.9,-0.8143
2403.2,-0.261925
2404.6,-0.94815
2406,-0.9900475
2407.4,0.0817999999999999
2408.8,-1.91115
2410.2,1.64964
2411.5,0.6233675
2412.9,-0.10705
2414.3,-2.2917775
2415.7,0
2417,1.46875
2418.4,-2.28095
2419.8,1.16543
2421.2,2.66075
2422.5,-3.52655
2423.9,-0.8667
2425.3,0.0178250000000002
2426.7,-1.956975
2428,-3.3093
2429.4,0.14715
2430.8,-2.810625
2432.1,-0.64965
2433.5,-0.4401925
2434.9,-1.126825
2436.2,0.762725
2437.6,0.781525
2439,-0.921895
2440.3,0.318275
2441.7,-1.025225
2443.1,-1.130975
2444.4,-0.708275
2445.8,-1.043625
2447.2,-2.498875
2448.5,-0.334975
2449.9,-1.23335
2451.2,-1.7294425
2452.6,1.575405
2454,-3.2989275
2455.3,0.544525
2456.7,0.93955
2458,1.479125
2459.4,-2.8079925
2460.7,0.275115
2462.1,-0.988945
2463.4,-0.00142249999999999
2464.8,2.5564975
2466.1,-1.644535
2467.5,-1.97652
2468.8,0.1969125
2470.2,1.5278225
2471.5,2.39682
2472.9,-0.5975725
2474.2,1.1419
2475.6,-1.68635
2476.9,1.5948
2478.3,2.4953
2479.6,-0.0963750000000001
2481,-1.67805
2482.3,1.71861
2483.6,1.7658125
2485,1.1803275
2486.3,-1.453445
2487.7,1.39892
2489,2.9690075
2490.3,1.177195
2491.7,2.658855
2493,1.982565
2494.4,2.89588
2495.7,1.0211525
2497,-0.220051
2498.4,3.084645
2499.7,3.18165
2501,3.009175
2502.4,3.02705
2503.7,-0.6077
2505,2.084275
2506.4,2.1337315
2507.7,0.6945375
2509,2.149275
2510.3,-1.93593
2511.7,-1.762425
2513,3.37615
2514.3,1.34313025
2515.6,2.464175
2517,1.01602
2518.3,1.6403
2519.6,1.766025
2520.9,0
2522.3,-3.7967125
2523.6,-27.33045
2524.9,-17.9203475
2526.2,-5.75115
2527.5,0.46804
2528.9,1.108225
2530.2,0.1356825
2531.5,1.1474
2532.8,2.33585
2534.1,0.5314725
2535.4,1.01325
2536.8,1.2611217675
2538.1,3.173795
2539.4,2.53085
2540.7,0.972315
2542,1.868695
2543.3,-0.0874550000000001
2544.6,1.6829125
2545.9,4.29976
2547.2,3.4504825
2548.6,1.623525
2549.9,4.670225
2551.2,3.659625
2552.5,4.012375
2553.8,6.2978
2555.1,3.08425
2556.4,5.9199
2557.7,2.64515
2559,4.54517
2560.3,4.2792
2561.6,4.765625
2562.9,5.138775
2564.2,2.981385
2565.5,2.5751975
2566.8,4.2601
2568.1,2.61115
2569.4,5.512345
2570.7,3.300275
2572,3.469365
2573.3,8.0885
2574.6,0.90955
2575.9,3.89405
2577.1,2.330875
2578.4,5.431525
2579.7,6.314225
2581,6.103025
2582.3,3.79145
2583.6,6.907875
2584.9,7.261125
2586.2,4.83864725
2587.5,5.1576675
2588.7,4.25805
2590,2.64995
2591.3,5.95788
2592.6,3.80565
2593.9,4.8545925
2595.2,2.0942
2596.4,4.6298275
2597.7,5.867575
2599,5.794475
2600.3,2.926225
2601.6,4.6496
2602.8,3.261725
2604.1,3.4436
2605.4,6.645555
2606.7,3.075485
2608,1.563125
2609.2,3.00731
2610.5,2.160075
2611.8,0.942025
2613,-0.3029325
2614.3,3.14236
2615.6,7.254975
2616.9,3.134945
2618.1,3.26415
2619.4,2.469575
2620.7,0.568435
2621.9,2.2782
2623.2,1.451575
2624.5,2.402135
2625.7,0.6443175
2627,0.164285
2628.3,1.465625
2629.5,0
2630.8,1.504225
2632.1,-0.466475
2633.3,1.31328
2634.6,1.980025
2635.8,3.05015
2637.1,1.2330375
2638.4,-0.65129835
2639.6,3.118025
2640.9,-1.650415
2642.1,-2.107475
2643.4,-1.9889475
2644.6,-1.427775
2645.9,-0.1943425
2647.2,-2.9182275
2648.4,-0.7329
2649.7,0.5472
2650.9,-0.59644675
2652.2,-0.5418825
2653.4,-2.15234225
2654.7,-0.7932225
2655.9,-0.820925
2657.2,-0.418599
2658.4,0.90981775
2659.7,-0.1242625
2660.9,-2.9531
2662.2,0.733935
2663.4,-3.72365
2664.6,-1.11195
2665.9,-0.8103
2667.1,-1.0711325
2668.4,-0.14153
2669.6,-1.0538475
2670.9,-0.75844
2672.1,-0.04635
2673.3,-1.153005
2674.6,-0.5373675
2675.8,-0.5062925
2677.1,-0.6300675
2678.3,-0.521695
2679.5,-2.3707825
2680.8,-0.3524575
2682,-2.00708
2683.2,-1.434575
2684.5,-3.401335
2685.7,-0.97272125
2686.9,-1.485445
2688.2,0.5138375
2689.4,-2.649695
2690.6,-0.961375
2691.9,-3.831925
2693.1,1.951162925
2694.3,-2.655325
2695.5,-2.0317625
2696.8,0.127051
2698,-1.3345025
2699.2,-1.2702
2700.4,0.791555
2701.7,0.805325
2702.9,1.462675
2704.1,0.8143725
2705.3,-1.2389425
2706.6,2.16345
2707.8,-0.2063
2709,-0.35045
2710.2,1.142135
2711.4,-1.35731
2712.6,-2.461595
2713.9,0.54967
2715.1,1.202595
2716.3,0.205875
2717.5,-1.8175555
2718.7,0.801435
2719.9,-2.3300225
2721.2,-0.529795
2722.4,0.913875
2723.6,-1.2344425
2724.8,2.922475
2726,0
2727.2,-0.534295
2728.4,-0.389025
2729.6,-0.2241
2730.8,-0.9614
2732,0.922575
2733.3,-0.67739
2734.5,-1.13725
2735.7,0.61624
2736.9,-2.1988375
2738.1,1.2691925
2739.3,0.9059925
2740.5,1.030825
2741.7,0.47038
2742.9,1.8222725
2744.1,-2.2068
2745.3,2.6178075
2746.5,-2.4340975
2747.7,0.9538825
2748.9,1.61085075
2750.1,1.087825
2751.3,0.51212
2752.5,-0.36023175
2753.7,-0.623355
2754.9,1.527225
2756,4.24113
2757.2,0.9876225
2758.4,0.920125
2759.6,1.832265
2760.8,3.7758375
2762,-0.567
2763.2,1.947495
2764.4,0.9821
2765.6,0.16003665
2766.8,2.8692275
2767.9,5.0746125
2769.1,3.8165075
2770.3,4.02015
2771.5,5.502225
2772.7,6.0232
2773.9,4.0949
2775.1,3.964525
2776.2,3.05325
2777.4,5.23685
2778.6,4.22626
2779.8,4.82425
2781,5.199
2782.1,3.4851775
2783.3,3.639455
2784.5,0.1922525
2785.7,1.852635
2786.8,4.582825
2788,2.6010925
2789.2,3.34645
2790.4,1.4057725
2791.5,3.3368125
2792.7,0.712175
2793.9,3.04135425
2795.1,0.9638325
2796.2,2.80955
2797.4,0.6930525
2798.6,-0.81083
2799.7,0.733825
2800.9,-0.5789715
2802.1,0.8486975
2803.2,-0.2992425
2804.4,0.201595
2805.6,0.76345
2806.7,0.467975
2807.9,0.76715
2809.1,-0.0125925000000001
2810.2,1.3844
2811.4,2.1677575
2812.6,-1.0541175
2813.7,-0.3836175
2814.9,0.6407
2816,-0.84137
2817.2,-0.397865
2818.4,0
2819.5,-0.91083
2820.7,2.13945
2821.8,1.062675
2823,2.3462
2824.1,-0.2914575
2825.3,-1.1519775
2826.4,-1.551295
2827.6,-1.047275
2828.7,2.656025
2829.9,0.894425
2831,0.854625
2832.2,0.239265
2833.3,3.3142
2834.5,1.1264925
2835.6,-0.69857
2836.8,-1.593825
2837.9,-5.499725
2839.1,-2.9444
2840.2,1.2672625
2841.4,-2.72965
2842.5,-1.715775
2843.7,-2.04776
2844.8,-0.823121
2845.9,0.36483
2847.1,-0.8478475
2848.2,-4.294075
2849.4,-2.02495
2850.5,-3.720075
2851.7,-3.4988
2852.8,-2.0357705
2853.9,-2.58666
2855.1,-2.22907
2856.2,-1.87651825
2857.3,-3.451775
2858.5,-3.61405
2859.6,0.0832025000000001
2860.7,-0.5538575
2861.9,-1.75657
2863,-3.7243
2864.1,-2.553115
2865.3,-3.129305
2866.4,-4.495725
2867.5,-3.836625
2868.7,-2.086175
2869.8,-2.2778
2870.9,-2.1766925
2872,-2.827345
2873.2,-1.4341303
2874.3,-3.13915
2875.4,-1.8098075
2876.5,-2.04849
2877.7,-0.8606
2878.8,-3.183325
2879.9,-0.905965
2881,0.85353
2882.2,-0.0153949999999998
2883.3,-1.001775
2884.4,-1.0212
2885.5,1.828745
2886.6,0.598885
2887.8,-0.35455
2888.9,0.671854
2890,3.8312175
2891.1,6.76153
2892.2,4.880665
2893.3,7.263175
2894.4,9.5977
2895.6,7.817675
2896.7,9.9304
2897.8,9.0478
2898.9,11.154475
2900,9.816425
2901.1,12.59105
2902.2,13.04375
2903.3,12.5545
2904.4,14.500925
2905.6,20.62925
2906.7,16.47475
2907.8,21.319
2908.9,23.88775
2910,23.75475
2911.1,25.695
2912.2,31.59125
2913.3,30.8165
2914.4,30.258
2915.5,30.72775
2916.6,31.399
2917.7,33.5595
2918.8,37.28
2919.9,39.40375
2921,42.042
2922.1,38.17
2923.2,43.97725
2924.3,43.5635
2925.4,51.182
2926.5,47.40675
2927.6,50.48525
2928.7,51.85225
2929.8,53.20575
2930.8,54.538
2931.9,57.23275
2933,56.58575
2934.1,61.24925
2935.2,63.012
2936.3,63.6235
2937.4,65.64525
2938.5,66.97325
2939.6,62.98275
2940.6,65.811
2941.7,63.63975
2942.8,68.4395
2943.9,68.938
2945,66.49975
2946.1,66.3925
2947.2,68.17925
2948.2,66.49625
2949.3,67.88225
2950.4,63.46
2951.5,65.31175
2952.6,62.23725
2953.6,60.16675
2954.7,59.24
2955.8,57.26025
2956.9,58.20625
2957.9,49.24625
2959,50.1025
2960.1,46.48875
2961.2,43.29225
2962.2,44.8695
2963.3,42.59575
2964.4,37.354
2965.5,37.24975
2966.5,33.25175
2967.6,29.854
2968.7,24.324
2969.7,23.94525
2970.8,25.34075
2971.9,26.7215
2973,22.685
2974,22.24375
2975.1,23.361
2976.2,17.4937
2977.2,19.12725
2978.3,17.81645
2979.3,17.187
2980.4,19.46375
2981.5,16.895325
2982.5,14.128325
2983.6,13.753875
2984.7,15.908325
2985.7,15.12425
2986.8,11.0825
2987.8,13.624925
2988.9,14.6916
2989.9,15.1936
2991,13.289
2992.1,13.78355
2993.1,17.611725
2994.2,15.919225
2995.2,16.384975
2996.3,15.78995
2997.3,14.828575
2998.4,17.221875
2999.4,15.6165
3000.5,14.910125
3001.5,16.811775
3002.6,16.79475
3003.6,18.1575
3004.7,16.244525
3005.7,19.273225
3006.8,17.345575
3007.8,19.99725
3008.9,20.782575
3009.9,22.105925
3011,23.903
3012,22.425
3013,23.61825
3014.1,25.97875
3015.1,25.81075
3016.2,21.279
3017.2,28.3335
3018.2,29.0095
3019.3,21.664425
3020.3,27.895
3021.4,32.02925
3022.4,29.0015
3023.4,30.48125
3024.5,30.62225
3025.5,33.1295
3026.5,32.2745
3027.6,34.1815
3028.6,35.43425
3029.6,38.07575
3030.7,37.64475
3031.7,38.448
3032.7,38.5005
3033.8,39.695
3034.8,43.11625
3035.8,42.95475
3036.9,40.894
3037.9,43.7445
3038.9,45.59325
3039.9,43.64875
3041,46.936
3042,48.3795
3043,49.097
3044,50.72175
3045.1,54.53475
3046.1,54.4765
3047.1,53.724
3048.1,54.592
3049.2,55.07975
3050.2,59.62175
3051.2,60.4
3052.2,64.36725
3053.2,61.8745
3054.3,62.41875
3055.3,64.22925
3056.3,65.0055
3057.3,64.1135
3058.3,63.368
3059.3,67.37425
3060.3,71.18
3061.4,73.48625
3062.4,70.88875
3063.4,71.22675
3064.4,74.4445
3065.4,78.98025
3066.4,74.61525
3067.4,76.8715
3068.4,82.4335
3069.5,80.02275
3070.5,83.67325
3071.5,85.61325
3072.5,88.89725
3073.5,88.9585
3074.5,89.3935
3075.5,92.27575
3076.5,91.85575
3077.5,91.2015
3078.5,95.6985
3079.5,98.97725
3080.5,98.43975
3081.5,98.2685
3082.5,99.84475
3083.5,105.2005
3084.5,106.161
3085.5,104.81225
3086.5,106.85075
3087.5,109.02025
3088.5,109.445
3089.5,109.2025
3090.5,109.7875
3091.5,115.7975
3092.5,116.62
3093.5,117.5225
3094.5,119.625
3095.5,123.4925
3096.4,122.16
3097.4,125.875
3098.4,124.3225
3099.4,129.2825
3100.4,131.02
3101.4,132.0825
3102.4,136.175
3103.4,134.0225
3104.4,136.2275
3105.3,139.875
3106.3,142.07
3107.3,146.6425
3108.3,146.085
3109.3,147.545
3110.3,150.99
3111.3,151.5725
3112.2,149.3925
3113.2,153.2225
3114.2,156.485
3115.2,162.5375
3116.2,163.7
3117.1,162.6525
3118.1,163.8675
3119.1,165.0275
3120.1,167.7375
3121,170.6
3122,171.865
3123,172.5775
3124,172.95
3124.9,177.3875
3125.9,177.93
3126.9,187.7225
3127.9,181.9625
3128.8,184.05
3129.8,185.295
3130.8,187.465
3131.7,186.4725
3132.7,189.3675
3133.7,196.2325
3134.7,197.3075
3135.6,195.085
3136.6,199.645
3137.6,200.1375
3138.5,201.41
3139.5,201.7275
3140.4,205.0075
3141.4,206.5175
3142.4,205.9725
3143.3,208.89
3144.3,209.255
3145.3,211.865
3146.2,214.725
3147.2,216.555
3148.1,217.48
3149.1,220.8275
3150.1,218.3625
3151,221.0975
3152,223.3575
3152.9,224.94
3153.9,222.205
3154.8,226.2425
3155.8,226.2425
3156.7,226.685
3157.7,232.0625
3158.6,234.2175
3159.6,232.7375
3160.6,235.42
3161.5,235.4125
3162.5,232.2275
3163.4,239.5425
3164.4,239.1875
3165.3,232.2125
3166.2,238.9325
3167.2,235.535
3168.1,241.2
3169.1,239.9625
3170,246.9025
3171,243.5225
3171.9,245.875
3172.9,246.275
3173.8,243.8775
3174.7,246.4075
3175.7,247.0075
3176.6,245.5725
3177.6,242.66
3178.5,247.68
3179.5,250.8925
3180.4,249.1175
3181.3,248.775
3182.3,249.735
3183.2,255.315
3184.1,252.6375
3185.1,253.535
3186,255.085
3186.9,254.3575
3187.9,254.6625
3188.8,254.91
3189.7,252.0675
3190.7,252.98
3191.6,252.34
3192.5,252.7425
3193.5,255.7075
3194.4,255.17
3195.3,253.7025
3196.3,255.3075
3197.2,254.135
3198.1,249.25
3199,252.93
3200,255.965
3200.9,253.0025
3201.8,249.775
3202.7,250.9875
3203.7,251.8225
3204.6,247.2925
3205.5,247.435
3206.4,248.055
3207.3,247.4725
3208.3,244.8125
3209.2,243.8775
3210.1,240.25
3211,237.4325
3211.9,237.6725
3212.9,238.9475
3213.8,238.4175
3214.7,233.7525
3215.6,232.9675
3216.5,232.715
3217.4,227.57
3218.4,228.6125
3219.3,226.68
3220.2,222.7475
3221.1,224.2175
3222,220.505
3222.9,219.8875
3223.8,215.875
3224.7,213.92
3225.6,209.9125
3226.6,207.9925
3227.5,205.67
3228.4,203.895
3229.3,199.5725
3230.2,198.6275
3231.1,195.8325
3232,190.665
3232.9,189.6775
3233.8,188.97
3234.7,187.475
3235.6,176.575
3236.5,176.22
3237.4,170.9825
3238.3,168.84
3239.2,166.03
3240.1,164.1625
3241,156.215
3241.9,150.875
3242.8,151.4525
3243.7,143.735
3244.6,138.9025
3245.5,132.7825
3246.4,121.3825
3247.3,119.1875
3248.2,107.639
3249.1,98.92
3250,88.72975
3250.9,81.273
3251.8,68.767
3252.7,63.75675
3253.5,45.2835
3254.4,32.99025
3255.3,13.000975
3256.2,-8.994025
