250.34,-2.19372
252.57,-4.64612
254.8,0
257.03,-5.536666
259.26,-6.867138
261.48,5.52748
263.71,9.19688
265.94,-8.25042
268.16,5.466868
270.39,1.8349
272.61,3.67316
274.84,0.0257659999999998
277.06,-0.295712
279.28,4.505884
281.51,1.319798
283.73,3.481508
285.95,1.723226
288.17,-0.96952
290.39,-3.13898
292.61,1.80978
294.83,-2.01436
297.05,3.5787328
299.27,0.0338243999999999
301.48,8.746406
303.7,12.41156
305.91,13.00082
308.13,15.33
310.35,10.95664
312.56,12.17372
314.77,14.50204
316.99,7.12644
319.2,12.67364
321.41,4.17822
323.62,5.297536
325.83,-0.1196152
328.04,-3.68688
330.25,-6.7649166
332.46,-10.273932
334.67,-11.152414
336.88,-13.74444
339.08,-19.5208
341.29,-16.40794
343.5,-22.0304
345.7,-4.71996
347.91,-5.127756
350.11,2.05574
352.31,3.330916
354.52,11.02898
356.72,13.533
358.92,17.1402
361.12,14.69174
363.32,12.91488
365.52,16.03928
367.72,13.03968
369.92,7.093532
372.12,16.40296
374.32,42.1022
376.51,79.0722
378.71,100.775
380.9,84.5698
383.1,50.826
385.29,20.9216
387.49,12.324016
389.68,6.39132
391.87,5.85522
394.07,-0.412082
396.26,0.330278
398.45,3.01904
400.64,15.28294
402.83,17.0918
405.02,24.3356
407.21,36.5116
409.39,65.0358
411.58,141.946
413.77,375.57
415.95,648.304
418.14,700
420.32,466.898
422.51,226.274
424.69,124.72
426.87,91.3288
429.06,94.9862
431.24,82.01
433.42,63.3916
435.6,27.6452
437.78,15.705822
439.96,5.767
442.14,-0.1049286
444.31,8.27716
446.49,20.2814
448.67,30.4386
450.84,32.0176
453.02,15.1943
455.19,0.4669
457.37,1.892328
459.54,-7.48484
461.71,-3.78434
463.89,0.643204
466.06,-4.68648
468.23,-5.893744
470.4,-13.37322
472.57,-10.40218
474.74,-14.18922
476.91,-13.9596
479.07,-6.708328
481.24,3.42854
483.41,1.45668
485.57,-3.1805622
487.74,4.901946
489.9,7.10452
492.07,1.589018
494.23,-0.792442
496.4,1.136988
498.56,-11.37936
500.72,-7.066304
502.88,-15.722
505.04,-9.3021
507.2,-6.20952
509.36,-5.13638
511.52,-1.722696
513.68,-2.879704
515.83,0.38732
517.99,6.44408
520.14,-0.532784
522.3,4.73312
524.45,5.19398
526.61,8.11966
528.76,9.3065
530.91,11.19052
533.07,9.65442
535.22,13.65026
537.37,14.909377
539.52,11.39078
541.67,13.32432
543.82,10.7301
545.97,9.4068
548.11,8.88638
550.26,-1.251342
552.41,6.08246
554.55,1.48962
556.7,-1.323486
558.84,0.1879
560.98,5.99388
563.13,-0.064858
565.27,8.579854
567.41,6.57046
569.55,14.099308
571.69,33.801
573.83,82.0686
575.97,121.872
578.11,119.134
580.25,74.026
582.39,39.9534
584.52,18.6618
586.66,11.20596
588.79,0.82785
590.93,6.0576
593.06,0.56284
595.19,1.06568
597.33,0.99913
599.46,0.20792
601.59,-0.3979
603.72,2.54062
605.85,0.4664
607.98,-0.0711094
610.11,7.88594
612.24,5.0722
614.36,13.24746
616.49,6.9117
618.62,4.77281
620.74,6.85866
622.87,4.008946
624.99,-0.616924
627.11,3.08874
629.24,-5.56394
631.36,-10.40072
633.48,-1.155086
635.6,-8.97536
637.72,-1.823306
639.84,2.99888
641.96,0.0710728
644.08,-3.62806
646.2,2.8702
648.31,-2.26756
650.43,-6.62614
652.54,-6.346634
654.66,-8.21694
656.77,1.15702
658.89,3.7512
661,6.190712
663.11,9.38402
665.22,6.82338
667.33,15.591078
669.44,13.0726
671.55,18.313694
673.66,26.46176
675.77,34.0446
677.88,45.5462
679.98,58.2252
682.09,71.1886
684.2,85.2604
686.3,102.582
688.4,110.2178
690.51,128.99
692.61,147.646
694.71,153.862
696.81,170.83
698.92,175.644
701.02,184.584
703.11,196.376
705.21,201.806
707.31,209.148
709.41,217.08
711.51,212.45
713.6,205.658
715.7,188.122
717.79,169.744
719.89,151.906
721.98,135.884
724.07,113.2678
726.16,90.2982
728.25,84.4816
730.35,71.7488
732.44,66.8186
734.52,71.41
736.61,78.5664
738.7,89.0468
740.79,113.2264
742.87,142.364
744.96,177.596
747.05,223.464
749.13,254.332
751.21,259.136
753.3,219.894
755.38,169.766
757.46,119.324
759.54,84.4318
761.62,57.2796
763.7,39.5538
765.78,31.1502
767.86,15.61666
769.94,10.06266
772.01,4.36538
774.09,0.5324812
776.17,-1.42926
778.24,-2.42566
780.32,-1.52332
782.39,-4.89494
784.46,-7.654264
786.53,-3.24846
788.61,-0.625174
790.68,-0.42738
792.75,-4.107886
794.82,-8.304812
796.89,-10.3339
798.95,-9.474928
801.02,-6.3224
803.09,-9.204702
805.15,-10.17137
807.22,-9.860474
809.28,-11.20286
811.35,-11.08178
813.41,-4.19814
815.47,-7.93398
817.53,-11.7554
819.6,-12.94498
821.66,-11.35322
823.72,-16.25848
825.78,-14.6313
827.83,-10.90092
829.89,-15.79794
831.95,-4.37084
834,-5.35458
836.06,-6.8686
838.12,-4.03842
840.17,-1.7591
842.22,-0.217618
844.28,-1.358402
846.33,1.06004
848.38,1.95508
850.43,2.53042
852.48,3.992882
854.53,4.84974
856.58,4.48904
858.63,6.625636
860.67,0.44236
862.72,7.5147
864.77,7.7956
866.81,8.3784
868.86,4.58856
870.9,2.81547
872.94,0.061468
874.98,-0.024088
877.03,1.09028
879.07,-0.3180898
881.11,3.4407
883.15,1.77168
885.19,-0.60376
887.22,3.878214
889.26,0.611066
891.3,3.1688
893.33,0.517052
895.37,-1.59606
897.4,-0.58866
899.44,0
901.47,0.71771
903.5,2.88026774
905.54,-0.0164400000000004
907.57,4.52722
909.6,0.403662
911.63,0.0727999999999998
913.66,1.941392
915.68,4.93882
917.71,-1.3122
919.74,1.94622
921.76,3.72906
923.79,-5.22374
925.82,0.18492
927.84,6.80826
929.86,2.06062
931.89,3.215096
933.91,11.33734
935.93,10.41908
937.95,6.94756
939.97,4.4047
941.99,7.27388
944.01,7.52882
946.02,6.18564
948.04,4.72698
950.06,2.625996
952.07,11.81998
954.09,9.72048
956.1,6.51044
958.12,7.6148428
960.13,8.07634
962.14,4.11823
964.15,7.81832
966.16,6.4702
968.17,0.94038
970.18,-0.098944
972.19,-1.696376
974.2,1.2591
976.2,7.8458
978.21,9.116
980.22,8.242424
982.22,5.22166
984.22,9.084
986.23,7.43726
988.23,4.167604
990.23,7.48038764
992.23,3.520514
994.24,6.5168
996.23,2.50906
998.23,6.20484
1000.2,9.7231
1002.2,9.37254
1004.2,7.6896
1006.2,9.53466
1008.2,17.10686
1010.2,11.16346
1012.2,11.23688
1014.2,6.62998
1016.2,9.3468
1018.2,9.2447816
1020.2,12.33306
1022.2,12.945
1024.2,14.52876
1026.1,17.8708
1028.1,17.45344
1030.1,22.7946
1032.1,19.1642
1034.1,25.1788
1036.1,20.3728
1038.1,25.6234
1040.1,29.1816
1042,31.0916
1044,35.873
1046,43.5584
1048,43.0028
1050,48.3208
1051.9,48.837
1053.9,49.6422
1055.9,46.0722
1057.9,50.3454
1059.9,46.568
1061.8,48.3722
1063.8,45.6054
1065.8,39.0062
1067.8,41.0598
1069.7,32.7592
1071.7,37.5526
1073.7,27.7552
1075.6,26.3952
1077.6,26.1572
1079.6,19.19756
1081.5,16.23238
1083.5,12.81576
1085.5,8.58908
1087.5,8.68674
1089.4,-0.7912
1091.4,2.48452
1093.3,3.566866
1095.3,2.11308
1097.3,1.33462
1099.2,5.24312
1101.2,2.2369
1103.2,-0.124806
1105.1,-1.72854522
1107.1,-1.59718
1109,-3.326354
1111,-5.842938
1113,1.2696322
1114.9,-3.399753
1116.9,-3.55862
1118.8,-5.457854
1120.8,2.230486
1122.7,5.01295
1124.7,4.167628
1126.6,6.57628
1128.6,3.31474
1130.5,1.230192
1132.5,1.2528
1134.4,1.555304
1136.4,7.62768
1138.3,11.97436
1140.3,8.543952
1142.2,6.541524
1144.2,13.72374
1146.1,19.7982
1148.1,18.08542
1150,21.5968
1151.9,24.2304
1153.9,23.3078
1155.8,21.554
1157.8,27.2644
1159.7,32.2838
1161.6,34.418
1163.6,41.9176
1165.5,43.1412
1167.5,46.5424
1169.4,49.5182
1171.3,60.4236
1173.3,65.7686
1175.2,69.2942
1177.1,75.3448
1179.1,85.352
1181,90.087
1182.9,98.6716
1184.9,106.656
1186.8,120.962
1188.7,128.276
1190.6,145.568
1192.6,159.342
1194.5,177.986
1196.4,185.386
1198.4,197.898
1200.3,209.336
1202.2,219.064
1204.1,230.948
1206,241.03
1208,251.844
1209.9,264.564
1211.8,274.506
1213.7,274.902
1215.6,280.122
1217.6,283.5
1219.5,283.5
1221.4,277.28
1223.3,271.58
1225.2,265.57
1227.1,256.844
1229.1,248.652
1231,240.154
1232.9,228.602
1234.8,220.128
1236.7,213.568
1238.6,197.78
1240.5,185.19
1242.4,173.442
1244.3,163.664
1246.2,154.812
1248.1,144.126
1250.1,133.072
1252,124.952
1253.9,116.146
1255.8,109.742
1257.7,101.3334
1259.6,97.3294
1261.5,91.6264
1263.4,83.3464
1265.3,76.7462
1267.2,74.8596
1269.1,71.494
1271,64.2998
1272.9,60.9666
1274.8,55.4672
1276.6,51.4052
1278.5,53.9728
1280.4,51.8252
1282.3,48.4526
1284.2,47.1848
1286.1,45.8004
1288,44.8114
1289.9,43.3116
1291.8,42.069
1293.7,41.0242
1295.6,37.9348
1297.4,34.8374
1299.3,35.6262
1301.2,32.545
1303.1,34.2774
1305,31.8402
1306.9,34.8194
1308.7,38.3338
1310.6,35.3388
1312.5,31.5894
1314.4,33.509
1316.3,30.3066
1318.1,31.9852
1320,30.391
1321.9,34.0584
1323.8,38.8688
1325.7,38.378
1327.5,42.7996
1329.4,45.0988
1331.3,42.458
1333.1,44.2468
1335,47.3392
1336.9,50.4828
1338.8,50.7306
1340.6,57.4586
1342.5,63.4048
1344.4,75.1154
1346.2,85.089
1348.1,93.3928
1350,107.058
1351.8,108.202
1353.7,110.674
1355.6,106.288
1357.4,104.001
1359.3,102.3388
1361.1,99.1798
1363,102.0696
1364.9,108.716
1366.7,117.708
1368.6,125.174
1370.4,137.532
1372.3,152.698
1374.2,167.938
1376,179.69
1377.9,196.012
1379.7,204.918
1381.6,211.544
1383.4,220.688
1385.3,228.358
1387.1,235.34
1389,240.036
1390.8,257.438
1392.7,279.816
1394.5,311.262
1396.4,342.218
1398.2,381.452
1400.1,390.902
1401.9,381.036
1403.8,349.476
1405.6,304.164
1407.4,256.974
1409.3,217.012
1411.1,182.894
1413,150.178
1414.8,122.476
1416.6,110.364
1418.5,99.5642
1420.3,83.3982
1422.2,72.6396
1424,63.4482
1425.8,50.5938
1427.7,41.5486
1429.5,37.0414
1431.3,33.5028
1433.2,28.8646
1435,27.0116
1436.8,24.5856
1438.7,20.8424
1440.5,15.78344
1442.3,7.93914
1444.1,11.04672
1446,10.7698
1447.8,6.351488
1449.6,8.63674
1451.4,6.7054
1453.3,2.335818
1455.1,3.346744
1456.9,-1.85768
1458.7,-4.1589
1460.6,-5.785782
1462.4,-0.0382279999999998
1464.2,-1.0923
1466,-10.11648
1467.8,-4.818232
1469.6,-6.7851
1471.5,-2.1188
1473.3,-8.20902
1475.1,-9.168
1476.9,-7.86086
1478.7,-8.718646
1480.5,-9.74892
1482.4,-6.600804
1484.2,-5.1849326
1486,-7.45118
1487.8,-16.69546
1489.6,-9.42864
1491.4,-9.93918
1493.2,-9.8105
1495,-11.60674
1496.8,-9.18238
1498.6,-10.566366
1500.4,-8.64862
1502.2,-8.8312
1504,-6.284804
1505.8,-5.017952
1507.6,-2.04112
1509.4,-2.9430426
1511.2,-4.60126
1513,-4.62576
1514.8,-5.4380208
1516.6,-3.25486
1518.4,-4.5473
1520.2,-1.660438
1522,-2.49934
1523.8,-1.11698
1525.6,-1.47872
1527.4,-5.532864
1529.2,-1.57732
1531,3.05164
1532.8,-1.15954
1534.6,-0.19424
1536.4,-0.502402
1538.2,0.283908
1539.9,3.835632
1541.7,5.7454
1543.5,16.45996
1545.3,14.0942
1547.1,13.38454
1548.9,20.9118
1550.7,30.006
1552.4,38.7388
1554.2,49.0154
1556,51.1126
1557.8,50.166
1559.6,37.2138
1561.3,45.9928
1563.1,45.301
1564.9,52.165
1566.7,52.3478
1568.4,59.8126
1570.2,66.8236
1572,71.3804
1573.8,76.3562
1575.5,81.1384
1577.3,89.3462
1579.1,95.3722
1580.9,108.34
1582.6,109.88
1584.4,119.962
1586.2,132.838
1587.9,141.372
1589.7,142.382
1591.5,159.28
1593.2,162.058
1595,169.394
1596.8,181.506
1598.5,184.57
1600.3,202.868
1602,213.784
1603.8,218.336
1605.6,231.61
1607.3,243.544
1609.1,257.87
1610.8,266.682
1612.6,275.662
1614.4,289.056
1616.1,296.824
1617.9,307.85
1619.6,316.538
1621.4,323.648
1623.1,336.138
1624.9,345.926
1626.6,351.342
1628.4,361.566
1630.1,373.314
1631.9,375.162
1633.6,378.43
1635.4,385.798
1637.1,387.886
1638.9,391.244
1640.6,394.052
1642.4,394.764
1644.1,401.274
1645.8,405.154
1647.6,407.378
1649.3,402.162
1651.1,401.012
1652.8,402.708
1654.6,403.134
1656.3,402.624
1658,399.766
1659.8,398.192
1661.5,401.65
1663.2,399.962
1665,399.074
1666.7,396.508
1668.4,392.654
1670.2,395.914
1671.9,398.29
1673.6,400.856
1675.4,401.198
1677.1,400.196
1678.8,406.808
1680.5,410.418
1682.3,414.996
1684,421.698
1685.7,425.218
1687.5,439.356
1689.2,446.48
1690.9,459.806
1692.6,470.386
1694.3,486.168
1696.1,498.616
1697.8,506.352
1699.5,529.808
1701.2,543.714
1702.9,557.688
1704.7,567.926
1706.4,581.07
1708.1,590.328
1709.8,600.464
1711.5,607.696
1713.2,613.116
1714.9,606.51
1716.7,611.848
1718.4,598.652
1720.1,594.476
1721.8,586.39
1723.5,572.178
1725.2,561.304
1726.9,546.666
1728.6,529.286
1730.3,513.16
1732,492.428
1733.7,470.974
1735.4,441.92
1737.1,416.412
1738.8,388.772
1740.6,352.716
1742.3,322.758
1744,291.842
1745.7,262.492
1747.3,233.668
1749,207.442
1750.7,186.438
1752.4,162.036
1754.1,140.35
1755.8,120.796
1757.5,107.574
1759.2,90.906
1760.9,78.9624
1762.6,66.7036
1764.3,60.7188
1766,53.9842
1767.7,46.5854
1769.4,40.4508
1771.1,35.7842
1772.7,31.1614
1774.4,25.9006
1776.1,25.7764
1777.8,22.729
1779.5,21.044
1781.2,16.7458
1782.8,18.6852
1784.5,12.16018
1786.2,8.137478
1787.9,4.344672
1789.6,4.0155518
1791.2,5.10382
1792.9,1.420786
1794.6,0.956818
1796.3,-1.264016
1798,-2.1259
1799.6,3.001638
1801.3,-3.035922
1803,-3.2855
1804.7,-0.47722
1806.3,-2.479182
1808,-3.78318
1809.7,-2.0481
1811.3,-2.479006
1813,-0.73399
1814.7,-0.697438
1816.3,-1.829986
1818,-5.269882
1819.7,-5.30616
1821.3,-1.217006
1823,-2.19394
1824.7,-1.55194
1826.3,0.88072
1828,-2.487626
1829.7,-3.25499
1831.3,-0.76136
1833,-0.201972
1834.6,0.6184
1836.3,2.16296
1838,-0.49848
1839.6,-0.8831158
1841.3,0.835288
1842.9,0.0537800000000003
1844.6,-2.22536
1846.2,1.55454
1847.9,-3.106166
1849.5,1.937376
1851.2,4.0638312
1852.8,0.0648000000000001
1854.5,1.19974
1856.1,2.52263
1857.8,3.20766
1859.4,1.73781
1861.1,2.281322
1862.7,-0.925434
1864.4,2.70036
1866,2.10704
1867.7,0.73646
1869.3,-0.69204
1871,0.56942
1872.6,3.15326
1874.2,5.010478
1875.9,3.103348
1877.5,5.32756
1879.2,0
1880.8,0.46404
1882.4,-3.246004
1884.1,-0.32328
1885.7,0.1582
1887.3,-1.837842
1889,-0.423772
1890.6,-2.8127786
1892.2,-2.69244
1893.9,0.51918
1895.5,-8.218712
1897.1,-1.405458
1898.8,-3.14874
1900.4,0.272366
1902,-6.70968
1903.7,-2.247952
1905.3,-7.21016
1906.9,-4.235972
1908.5,-3.5811786
1910.2,-3.140866
1911.8,-2.78076
1913.4,-3.9624
1915,-0.8944
1916.7,-1.668878
1918.3,-3.101876
1919.9,-2.68292
1921.5,-1.580884
1923.1,-3.73645
1924.8,-1.220474
1926.4,-5.081378
1928,-2.2385
1929.6,-3.042258
1931.2,0.06968
1932.8,-4.80052
1934.4,-1.9197
1936.1,2.673358
1937.7,-2.542778
1939.3,-3.841612
1940.9,-4.275254
1942.5,-0.940472
1944.1,-2.575256
1945.7,1.054459
1947.3,0.410154
1948.9,-0.0384319999999999
1950.5,-2.4705
1952.1,0.1126062
1953.8,-0.51106
1955.4,1.544512
1957,2.918578
1958.6,-0.024014
1960.2,-2.460486
1961.8,1.32854
1963.4,1.454762
1965,2.446676
1966.6,0.993244
1968.2,-1.96352
1969.8,-0.83896
1971.4,1.42028
1973,3.95726
1974.5,4.094878
1976.1,2.230408
1977.7,1.9370672
1979.3,-3.15948
1980.9,3.12408
1982.5,2.7714
1984.1,0.471494
1985.7,1.539914
1987.3,3.41256
1988.9,0.0128199999999999
1990.5,1.7476028
1992,2.51644
1993.6,1.991758
1995.2,6.88866
1996.8,-1.73062
1998.4,1.50274
2000,-1.172628
2001.6,2.36278
2003.1,2.7374
2004.7,2.2228722
2006.3,1.243386
2007.9,3.08628
2009.5,4.145704
2011,3.2937
2012.6,1.39234
2014.2,1.31656
2015.8,3.20796
2017.3,2.355964
2018.9,-0.609376
2020.5,3.23354
2022.1,6.4416214
2023.6,4.182288
2025.2,8.23234
2026.8,2.962534
2028.3,4.50835074
2029.9,1.613322
2031.5,2.329748
2033,4.599212
2034.6,3.711868
2036.2,1.53594
2037.7,5.031128
2039.3,5.83882
2040.9,4.04264
2042.4,5.28836
2044,4.95864
2045.6,4.206024
2047.1,8.17428
2048.7,5.64568
2050.2,-1.160062
2051.8,1.876748
2053.4,1.7499886
2054.9,1.75356
2056.5,0.53621
2058,-0.35964
2059.6,-1.36552
2061.1,2.05117
2062.7,1.37198
2064.2,3.138316
2065.8,3.23586
2067.3,1.898134
2068.9,1.230674
2070.4,0.112318
2072,-2.486472
2073.5,0.8239488
2075.1,-0.5931
2076.6,3.093808
2078.2,-2.53997
2079.7,4.02274
2081.3,3.828
2082.8,3.39306
2084.4,3.00544
2085.9,5.92808
2087.4,2.59185
2089,3.75858112
2090.5,3.723552
2092.1,4.0823
2093.6,1.814818
2095.1,8.44754
2096.7,5.62254
2098.2,8.10562
2099.7,5.914866
2101.3,7.13006
2102.8,7.1406302
2104.3,4.46096
2105.9,8.15152
2107.4,6.6007
2108.9,6.6644
2110.5,5.2054
2112,4.86852
2113.5,6.20508
2115.1,7.8153
2116.6,5.91822
2118.1,6.45486
2119.6,4.364142
2121.2,6.279488
2122.7,4.8117
2124.2,2.890207
2125.7,2.38736
2127.3,4.036176
2128.8,5.121724
2130.3,5.347106
2131.8,0.48298
2133.3,4.7046
2134.9,6.284802
2136.4,4.0237
2137.9,2.8345
2139.4,2.90604
2140.9,4.04812
2142.4,3.90294
2144,1.70412
2145.5,-1.52208
2147,3.02228
2148.5,4.92388
2150,3.160634
2151.5,0.453232
2153,3.060396
2154.5,2.85794
2156,1.438686
2157.6,5.7119648
2159.1,3.76542
2160.6,2.27594
2162.1,-0.904358
2163.6,-1.775644
2165.1,1.486958
2166.6,4.02394
2168.1,1.14594
2169.6,-0.79322
2171.1,4.326402
2172.6,4.936266
2174.1,0.84428
2175.6,2.93986
2177.1,1.61616
2178.6,1.631624
2180.1,-1.458792
2181.6,-1.784322
2183.1,-3.24644
2184.6,-0.376552
2186.1,-2.29238
2187.5,-3.802808
2189,-1.8073
2190.5,1.527312
2192,-0.2819
2193.5,0.57082
2195,1.02948
2196.5,-2.02268
2198,-2.693432
2199.5,-4.758324
2201,-0.108566
2202.4,-1.12226
2203.9,-2.02842
2205.4,-1.757386
2206.9,-2.406198
2208.4,1.18888
2209.9,-1.3617594
2211.3,-3.36742
2212.8,-3.2942
2214.3,-2.672494
2215.8,-1.15213
2217.3,-4.08092
2218.7,-1.4154
2220.2,-4.59646
2221.7,-5.45831
2223.2,-0.419226
2224.6,-1.210278
2226.1,-1.642744
2227.6,-2.364226
2229.1,-2.115808
2230.5,-2.06596
2232,-2.5212764
2233.5,1.74198
2234.9,-2.1598
2236.4,-0.447684
2237.9,-1.078714
2239.3,-1.98216
2240.8,0.96484
2242.3,0.90391
2243.7,1.00452
2245.2,-1.50878
2246.7,0.24366
2248.1,0.25752
2249.6,-4.98682
2251.1,2.3456998
2252.5,0.358304
2254,-1.6898094
2255.4,-3.4489304
2256.9,-0.874114
2258.3,-2.98678
2259.8,-0.1497678
2261.3,-6.52868
2262.7,1.90548236
2264.2,-2.1809066
2265.6,-0.541714
2267.1,0.928676
2268.5,-2.36904
2270,1.0434826
2271.4,-0.739492
2272.9,2.763348
2274.3,0
2275.8,-1.552538
2277.2,-0.664638
2278.7,-0.508098
2280.1,0.10054
2281.6,-3.37448
2283,-3.15212
2284.5,-4.88298
2285.9,-0.7361
2287.4,1.83319
2288.8,-1.084006
2290.2,-2.198852
2291.7,1.744874
2293.1,-0.04114
2294.6,-1.1937
2296,-0.770342
2297.4,0.957562
2298.9,-1.20378
2300.3,-1.048004
2301.7,2.54209
2303.2,3.241486
2304.6,1.327144
2306,3.88608
2307.5,0.482878
2308.9,2.316206
2310.3,0.0442939999999998
2311.8,0.4839982
2313.2,3.009478
2314.6,1.64919
2316.1,-0.2668
2317.5,4.054178
2318.9,2.70238
2320.3,3.235632
2321.8,5.91436
2323.2,6.578288
2324.6,13.979
2326,21.215
2327.5,29.3188
2328.9,36.8286
2330.3,36.6524
2331.7,26.4282
2333.2,18.0966
2334.6,10.98672
2336,7.70048
2337.4,5.21608
2338.8,0.463068
2340.2,1.58958
2341.7,4.16948
2343.1,2.83002
2344.5,3.99036
2345.9,3.71484
2347.3,-0.364762
2348.7,3.43692
2350.1,0.09474
2351.6,3.14087
2353,0.47702
2354.4,4.1928
2355.8,4.198142
2357.2,1.392932
2358.6,-2.486606
2360,2.904328
2361.4,4.87286
2362.8,4.84192
2364.2,2.919738
2365.6,2.46598
2367,4.32268
2368.4,5.67584
2369.8,7.16348
2371.2,6.6677
2372.6,5.85108
2374,6.30982
2375.4,2.134194
2376.8,3.5243
2378.2,5.75396
2379.6,3.967262
2381,7.7344
2382.4,4.58804
2383.8,4.16824
2385.2,2.10004
2386.6,4.507714
2388,2.367998
2389.4,4.78868
2390.8,5.045264
2392.1,1.9688814
2393.5,4.24184
2394.9,4.75768
2396.3,4.92182
2397.7,3.882116
2399.1,3.421234
2400.5,3.16294
2401.9,2.3900246
2403.2,0.385426
2404.6,3.050572
2406,4.615598
2407.4,4.2631
2408.8,0.133976
2410.2,1.68319
2411.5,2.0212776
2412.9,-0.0919979999999999
2414.3,-1.237456
2415.7,0
2417,2.089386
2418.4,3.423316
2419.8,2.754166
2421.2,2.3268
2422.5,-0.165246
2423.9,3.3082
2425.3,2.93538
2426.7,2.71042
2428,-1.685362
2429.4,-0.243578
2430.8,1.3726632
2432.1,1.305912
2433.5,2.14082
2434.9,0.443168
2436.2,0.256934
2437.6,3.80228
2439,2.7473536
2440.3,4.070214
2441.7,1.746716
2443.1,-0.654902
2444.4,2.9942386
2445.8,-0.56529
2447.2,0.530896
2448.5,2.445178
2449.9,0.26689
2451.2,2.11555
2452.6,1.514737
2454,3.320496
2455.3,0.564774
2456.7,0.46094
2458,1.39304
2459.4,-1.61256
2460.7,0.992734
2462.1,0.95948
2463.4,1.282804
2464.8,2.42872
2466.1,1.27534
2467.5,0.676814
2468.8,0.90911
2470.2,3.889134
2471.5,-0.5029964
2472.9,0.90652
2474.2,1.24752
2475.6,0.518978
2476.9,3.6321286
2478.3,0.52622
2479.6,1.002828
2481,2.055988
2482.3,1.32916
2483.6,1.679298
2485,0.39974
2486.3,1.21524252
2487.7,-0.784608
2489,0.58118
2490.3,1.342624
2491.7,2.481518
2493,1.8727184
2494.4,5.62106
2495.7,0.491744
2497,1.22132
2498.4,0.664304
2499.7,1.818242
2501,4.294868
2502.4,1.16359
2503.7,3.588284
2505,2.67994
2506.4,2.27062
2507.7,1.35632
2509,3.34686
2510.3,7.138094
2511.7,3.777428
2513,2.36546
2514.3,0.72662
2515.6,0.49964
2517,1.611166
2518.3,1.07259
2519.6,2.9837
2520.9,0
2522.3,1.035204
2523.6,0.653272
2524.9,1.903434
2526.2,3.09474
2527.5,2.14264
2528.9,3.741394
2530.2,1.59836
2531.5,2.79018
2532.8,2.868154
2534.1,4.99484
2535.4,1.87356
2536.8,5.453334
2538.1,2.1833
2539.4,4.962996
2540.7,4.804762
2542,-0.0983419999999999
2543.3,-0.559152
2544.6,2.39832
2545.9,7.14124
2547.2,2.359534
2548.6,2.258912
2549.9,3.405062
2551.2,2.443686
2552.5,6.06344
2553.8,4.3850286
2555.1,4.8018
2556.4,1.487684
2557.7,5.1076
2559,4.08074
2560.3,4.116734
2561.6,4.00232
2562.9,4.492316
2564.2,6.76392
2565.5,2.2285
2566.8,3.763798
2568.1,0.8949
2569.4,1.73585
2570.7,2.4570804
2572,3.816476
2573.3,4.655144
2574.6,3.983966
2575.9,4.107079
2577.1,1.31634
2578.4,4.3459
2579.7,3.63834
2581,1.71436
2582.3,4.54728
2583.6,2.416286
2584.9,2.92964
2586.2,1.6014614
2587.5,1.9244
2588.7,0.68832
2590,2.76678
2591.3,0.321004
2592.6,2.3933358
2593.9,0.77494
2595.2,1.60136
2596.4,-0.74784
2597.7,2.0911
2599,0.213386
2600.3,-1.86268
2601.6,1.469606
2602.8,1.21485
2604.1,1.95708
2605.4,-2.010416
2606.7,-1.3679
2608,-3.45968
2609.2,-2.400376
2610.5,-0.72144
2611.8,-3.442508
2613,-0.014818
2614.3,-3.349293
2615.6,-1.965384
2616.9,-1.663356
2618.1,-1.873788
2619.4,-2.32456
2620.7,-2.955116
2621.9,-0.0239220000000001
2623.2,-2.07508
2624.5,-4.74928
2625.7,-3.25404
2627,-3.57108
2628.3,-4.26474
2629.5,0
2630.8,-1.3992556
2632.1,-0.298664
2633.3,-4.63662
2634.6,-5.36648
2635.8,-3.2824
2637.1,-5.97186
2638.4,-4.73872
2639.6,-3.231824
2640.9,-4.65204
2642.1,-3.79064
2643.4,-4.2722699
2644.6,-3.801
2645.9,-3.5682923
2647.2,-7.1268888
2648.4,-4.532408
2649.7,-5.50684
2650.9,-5.60952
2652.2,-3.34815
2653.4,-3.17636
2654.7,-6.449776
2655.9,-5.2383
2657.2,-6.96706
2658.4,-3.81256
2659.7,-3.674496
2660.9,-5.14192
2662.2,-1.565732
2663.4,11.62132
2664.6,5.531124
2665.9,-1.98028
2667.1,-4.8829
2668.4,-4.99104
2669.6,-1.52716
2670.9,-4.20078
2672.1,-2.18558
2673.3,-3.83837
2674.6,-4.185198
2675.8,-2.084224
2677.1,-3.526374
2678.3,-4.8304918
2679.5,-3.76912
2680.8,-3.669538
2682,-2.50424
2683.2,-0.34608
2684.5,-4.103022
2685.7,-3.83964
2686.9,-4.669109
2688.2,0.223034
2689.4,-1.5931222
2690.6,-2.9106678
2691.9,-3.65032
2693.1,-3.54352
2694.3,-3.37814
2695.5,-1.6319746
2696.8,-2.880476
2698,-2.459442
2699.2,-1.5867388
2700.4,-0.837226
2701.7,-0.99054
2702.9,-0.682172
2704.1,0.818662
2705.3,-0.46898
2706.6,-1.60824
2707.8,0.726574
2709,-3.2744676
2710.2,0.01729
2711.4,-0.791452
2712.6,-0.725274
2713.9,-0.571436
2715.1,0.8303258
2716.3,3.592976
2717.5,0.451746
2718.7,2.43192
2719.9,2.90452
2721.2,0.391086
2722.4,-1.44126
2723.6,1.6108
2724.8,2.25096
2726,0
2727.2,-0.4497
2728.4,-0.4228
2729.6,-0.79981
2730.8,0.6229
2732,3.73142
2733.3,3.310134
2734.5,-0.35691
2735.7,1.5231
2736.9,2.494964
2738.1,3.214122
2739.3,2.73453
2740.5,2.485952
2741.7,1.66274
2742.9,-0.198514
2744.1,-0.77492
2745.3,0.660364
2746.5,1.6570546
2747.7,0.902644
2748.9,4.48753
2750.1,3.1341
2751.3,3.68248
2752.5,4.032774
2753.7,1.7394816
2754.9,1.431472
2756,1.082672
2757.2,1.592288
2758.4,5.10468
2759.6,3.76062
2760.8,2.832674
2762,4.2242
2763.2,5.28102
2764.4,7.79278
2765.6,5.18754
2766.8,6.13958
2767.9,8.05178
2769.1,8.89872
2770.3,5.94012
2771.5,8.94602
2772.7,5.20662
2773.9,6.682052
2775.1,6.31791
2776.2,10.93474
2777.4,5.56184
2778.6,6.59
2779.8,4.84266
2781,7.60964
2782.1,3.683654
2783.3,7.90306
2784.5,8.61566
2785.7,5.273996
2786.8,6.1251
2788,4.4001
2789.2,4.88054
2790.4,4.791406
2791.5,1.6719
2792.7,3.4751
2793.9,2.91741
2795.1,1.275278
2796.2,1.60504
2797.4,0.9338574
2798.6,2.46396
2799.7,2.23838
2800.9,-1.1109
2802.1,2.399454
2803.2,0.93912
2804.4,2.312916
2805.6,2.613424
2806.7,-3.117276
2807.9,-1.818588
2809.1,1.397684
2810.2,-0.09008
2811.4,-1.312566
2812.6,0.54146
2813.7,0.23854
2814.9,1.4279
2816,0.11555
2817.2,-2.32048
2818.4,0
2819.5,-0.219858
2820.7,-1.224834
2821.8,-1.650887
2823,-1.594628
2824.1,-0.994984
2825.3,-1.705394
2826.4,-2.4955
2827.6,-0.03142
2828.7,-0.883
2829.9,1.48438
2831,0.19965
2832.2,-1.907302
2833.3,-1.925178
2834.5,-1.991
2835.6,-2.91406
2836.8,-2.48232
2837.9,-4.20604
2839.1,-2.52714
2840.2,-3.76136
2841.4,-3.474602
2842.5,-3.805802
2843.7,-2.59822
2844.8,-4.747092
2845.9,-5.40124
2847.1,-4.64388
2848.2,-1.5843
2849.4,-6.91678
2850.5,-2.88308
2851.7,-3.80854
2852.8,-5.400394
2853.9,-4.48216
2855.1,-4.826588
2856.2,-3.926042
2857.3,-1.99962
2858.5,-4.27412
2859.6,-3.2835002
2860.7,-3.62076
2861.9,-6.24276
2863,-3.025388
2864.1,-4.31626
2865.3,-5.76366
2866.4,-5.87154
2867.5,-4.883836
2868.7,-4.16156
2869.8,-3.234308
2870.9,-3.8216
2872,-3.2596
2873.2,-1.869586
2874.3,-4.56306
2875.4,-3.506456
2876.5,-1.799422
2877.7,-1.06614
2878.8,-2.41904
2879.9,0.118048
2881,-0.110962
2882.2,-0.15522
2883.3,2.445032
2884.4,5.01674
2885.5,5.875
2886.6,3.669018
2887.8,1.7952944
2888.9,2.67353
2890,9.6864
2891.1,9.37112
2892.2,11.7236
2893.3,12.67653
2894.4,12.20342
2895.6,14.452
2896.7,13.64306
2897.8,12.80488
2898.9,17.754
2900,21.093
2901.1,21.5208
2902.2,24.8798
2903.3,25.725
2904.4,27.97
2905.6,27.913
2906.7,31.338
2907.8,33.6026
2908.9,36.9784
2910,40.2368
2911.1,40.732
2912.2,43.1152
2913.3,46.2862
2914.4,49.0588
2915.5,50.7344
2916.6,54.716
2917.7,54.714
2918.8,57.9252
2919.9,63.5372
2921,67.7264
2922.1,67.2186
2923.2,72.0482
2924.3,75.67
2925.4,77.2994
2926.5,79.1936
2927.6,82.675
2928.7,83.486
2929.8,86.5006
2930.8,89.1178
2931.9,92.8964
2933,99.228
2934.1,100.0016
2935.2,99.2382
2936.3,101.1268
2937.4,101.5506
2938.5,105.566
2939.6,103.2798
2940.6,107.462
2941.7,108.222
2942.8,107.564
2943.9,107.61
2945,107.7414
2946.1,106.746
2947.2,107.9286
2948.2,107.878
2949.3,105.9096
2950.4,103.1948
2951.5,101.3968
2952.6,97.7392
2953.6,97.3304
2954.7,95.179
2955.8,91.1308
2956.9,84.9306
2957.9,81.975
2959,77.645
2960.1,74.488
2961.2,70.0514
2962.2,66.9956
2963.3,64.6424
2964.4,60.9016
2965.5,58.6612
2966.5,52.3858
2967.6,54.7016
2968.7,45.9876
2969.7,43.8328
2970.8,45.981
2971.9,40.432
2973,36.9454
2974,37.7858
2975.1,34.9352
2976.2,36.7312
2977.2,35.1416
2978.3,33.5722
2979.3,31.7524
2980.4,29.9714
2981.5,28.2494
2982.5,28.7682
2983.6,27.992
2984.7,28.6654
2985.7,24.2628
2986.8,24.3174
2987.8,26.7936
2988.9,23.7038
2989.9,29.2894
2991,27.318
2992.1,27.8748
2993.1,27.8058
2994.2,24.7354
2995.2,25.3542
2996.3,24.865
2997.3,26.1248
2998.4,27.4426
2999.4,28.5124
3000.5,25.4214
3001.5,28.3724
3002.6,29.0986
3003.6,27.097
3004.7,30.1918
3005.7,35.7024
3006.8,32.9198
3007.8,31.5984
3008.9,34.6172
3009.9,34.5688
3011,36.4206
3012,38.2626
3013,34.0178
3014.1,38.4094
3015.1,39.4296
3016.2,36.2364
3017.2,41.8336
3018.2,40.6224
3019.3,45.2508
3020.3,43.9032
3021.4,43.2734
3022.4,46.2856
3023.4,45.8354
3024.5,45.8058
3025.5,48.2862
3026.5,48.3418
3027.6,49.3816
3028.6,52.5146
3029.6,54.9392
3030.7,54.1948
3031.7,59.1096
3032.7,58.4824
3033.8,59.4324
3034.8,57.7956
3035.8,61.0102
3036.9,61.2766
3037.9,64.2458
3038.9,63.058
3039.9,66.6144
3041,66.4958
3042,70.7398
3043,72.4936
3044,70.5484
3045.1,75.4108
3046.1,73.2682
3047.1,75.2802
3048.1,77.9846
3049.2,79.393
3050.2,81.9214
3051.2,84.668
3052.2,84.5468
3053.2,82.2538
3054.3,85.126
3055.3,86.803
3056.3,90.8852
3057.3,91.7944
3058.3,93.6662
3059.3,92.2406
3060.3,98.9494
3061.4,98.7874
3062.4,100.0334
3063.4,101.3186
3064.4,103.405
3065.4,108.996
3066.4,104.5744
3067.4,105.6302
3068.4,110.024
3069.5,113.014
3070.5,108.762
3071.5,112.8366
3072.5,113.558
3073.5,117.428
3074.5,120.882
3075.5,119.026
3076.5,123.286
3077.5,120.6
3078.5,123.138
3079.5,129.068
3080.5,129.742
3081.5,134.988
3082.5,134.008
3083.5,132.63
3084.5,138.162
3085.5,137.818
3086.5,141.74
3087.5,143.554
3088.5,145.428
3089.5,146.126
3090.5,145.86
3091.5,150.942
3092.5,147.682
3093.5,156.696
3094.5,157.81
3095.5,155.346
3096.4,163.806
3097.4,160.864
3098.4,158.66
3099.4,166.418
3100.4,171.056
3101.4,172.164
3102.4,172.564
3103.4,178.65
3104.4,171.836
3105.3,182.202
3106.3,181.668
3107.3,191.282
3108.3,189.918
3109.3,189.942
3110.3,194.284
3111.3,195.93
3112.2,197.042
3113.2,200.956
3114.2,204.526
3115.2,207.674
3116.2,207.212
3117.1,212.216
3118.1,215.798
3119.1,216.496
3120.1,211.93
3121,217.548
3122,221.142
3123,225.54
3124,228.048
3124.9,222.916
3125.9,227.396
3126.9,231.278
3127.9,235.21
3128.8,242.89
3129.8,236.292
3130.8,236.638
3131.7,238.368
3132.7,245.668
3133.7,247.42
3134.7,249.456
3135.6,252.598
3136.6,252.428
3137.6,254.946
3138.5,254.258
3139.5,255.048
3140.4,260.716
3141.4,262.824
3142.4,265.282
3143.3,264.148
3144.3,263.042
3145.3,267.706
3146.2,266.95
3147.2,270.51
3148.1,271.512
3149.1,275.408
3150.1,275.08
3151,276.474
3152,279.252
3152.9,280.23
3153.9,281.03
3154.8,285.15
3155.8,283.182
3156.7,284.948
3157.7,290.658
3158.6,288.288
3159.6,286.118
3160.6,291.876
3161.5,292.086
3162.5,293.826
3163.4,292.408
3164.4,296.372
3165.3,291.602
3166.2,293.242
3167.2,301.392
3168.1,301.844
3169.1,296.3
3170,300.732
3171,301.912
3171.9,299.31
3172.9,300.248
3173.8,299.566
3174.7,298.454
3175.7,302.462
3176.6,303.708
3177.6,301.406
3178.5,302.674
3179.5,305.628
3180.4,303.096
3181.3,306.082
3182.3,306.884
3183.2,304.468
3184.1,306.62
3185.1,309.228
3186,305.756
3186.9,307.294
3187.9,307.638
3188.8,303.382
3189.7,306.342
3190.7,307.04
3191.6,304.704
3192.5,310.09
3193.5,305.168
3194.4,305.062
3195.3,305.2
3196.3,303.07
3197.2,304.236
3198.1,302.006
3199,303.26
3200,301.384
3200.9,294.924
3201.8,296.36
3202.7,298.914
3203.7,296.062
3204.6,297.968
3205.5,298.206
3206.4,289.944
3207.3,290.144
3208.3,290.53
3209.2,286.932
3210.1,286.142
3211,283.848
3211.9,279.56
3212.9,274.922
3213.8,277.492
3214.7,272.706
3215.6,278.454
3216.5,272.696
3217.4,267.33
3218.4,267.76
3219.3,266.672
3220.2,261.082
3221.1,257.372
3222,255.904
3222.9,252.94
3223.8,250.34
3224.7,245.762
3225.6,244.544
3226.6,243.414
3227.5,238.086
3228.4,238.776
3229.3,232.484
3230.2,229.906
3231.1,225.244
3232,221.938
3232.9,216.326
3233.8,214.394
3234.7,210.482
3235.6,206.166
3236.5,203.13
3237.4,195.54
3238.3,195.28
3239.2,189.67
3240.1,181.384
3241,179.44
3241.9,175.212
3242.8,165.97
3243.7,158.68
3244.6,161.028
3245.5,149.446
3246.4,141.166
3247.3,130.56
3248.2,123.414
3249.1,115.802
3250,103.8964
3250.9,92.629
3251.8,78.8816
3252.7,68.4052
3253.5,50.7834
3254.4,31.2162
3255.3,12.1822
3256.2,-8.42782
