250.34,7.04882
252.57,0.42906
254.8,0
257.03,-2.24218
259.26,-0.946996
261.48,0.23734
263.71,3.69006
265.94,-5.14762
268.16,-1.99436
270.39,1.86283
272.61,2.688568
274.84,1.915394
277.06,-1.086726
279.28,-3.08436
281.51,-2.49642
283.73,-2.357658
285.95,0.9998
288.17,-1.98428
290.39,-0.260618
292.61,4.08642
294.83,-3.5799
297.05,-0.71414
299.27,2.50608
301.48,2.87538
303.7,13.7078
305.91,8.66932
308.13,9.29878
310.35,9.8627
312.56,6.71242
314.77,10.06208
316.99,10.81238
319.2,9.48838
321.41,6.8072
323.62,3.10994
325.83,-0.0769686
328.04,4.042366
330.25,-4.8285
332.46,-7.2145
334.67,-6.082
336.88,-5.671468
339.08,-9.788048
341.29,-4.281946
343.5,-13.22598
345.7,-2.146348
347.91,-3.33814
350.11,7.5246
352.31,8.74458
354.52,10.60106
356.72,10.54412
358.92,19.2858
361.12,17.2102
363.32,16.11388
365.52,16.3596
367.72,16.42156
369.92,9.97728
372.12,14.08578
374.32,34.7166
376.51,77.8636
378.71,98.7844
380.9,89.948
383.1,51.3974
385.29,17.73072
387.49,15.3806
389.68,-1.02256
391.87,0.4320118
394.07,-1.975076
396.26,1.697206
398.45,1.68594
400.64,7.6376
402.83,15.35122
405.02,27.4716
407.21,38.8988
409.39,59.0184
411.58,139.932
413.77,369.432
415.95,647.808
418.14,700
420.32,476.514
422.51,238.134
424.69,127.174
426.87,92.213
429.06,93.053
431.24,87.1948
433.42,63.7086
435.6,34.0094
437.78,15.3806
439.96,7.52296
442.14,-0.1369096
444.31,8.07346
446.49,29.9132
448.67,35.5166
450.84,35.596
453.02,22.8032
455.19,1.28796
457.37,-0.72932
459.54,0.5312
461.71,0.494266
463.89,0.92902
466.06,-1.693284
468.23,-3.68458
470.4,-7.052174
472.57,-8.64372
474.74,-5.98314
476.91,-7.489178
479.07,1.21344
481.24,5.16886
483.41,8.117798
485.57,7.095976
487.74,5.169428
489.9,4.408824
492.07,4.88986
494.23,-2.44712
496.4,-3.64118
498.56,-8.57904
500.72,-6.13702
502.88,-6.98058
505.04,-7.51014
507.2,-8.17124
509.36,-2.65608
511.52,-5.724524
513.68,-6.780796
515.83,-0.82512
517.99,3.69632
520.14,-4.938776
522.3,-3.45866
524.45,-3.27516
526.61,4.41875
528.76,0.277688
530.91,4.109092
533.07,5.85294
535.22,8.41316
537.37,5.27998
539.52,3.40592
541.67,7.07727
543.82,-2.03446
545.97,1.24524
548.11,3.26113
550.26,-0.4706548
552.41,-3.32538
554.55,-3.79124
556.7,-0.85606
558.84,-3.88911
560.98,3.2725
563.13,2.1126404
565.27,5.608832
567.41,6.11088
569.55,14.53334
571.69,37.1064
573.83,81.0424
575.97,114.464
578.11,122.34
580.25,83.0666
582.39,43.8936
584.52,21.7516
586.66,14.2168
588.79,8.20928
590.93,10.48308
593.06,11.79464
595.19,6.66388
597.33,4.296774
599.46,6.08872
601.59,-2.64994
603.72,2.03093
605.85,1.947
607.98,-0.1030458
610.11,11.3567
612.24,6.739204
614.36,10.0834
616.49,7.15914
618.62,4.06532
620.74,2.72244
622.87,5.4588
624.99,0.278542
627.11,-1.6725
629.24,-3.9877
631.36,1.837212
633.48,1.82536
635.6,-2.4088
637.72,-2.55586
639.84,-0.34454
641.96,-0.0245748
644.08,1.30848
646.2,-5.056116
648.31,-4.35662
650.43,-6.9985552
652.54,-8.82484
654.66,-9.86302
656.77,-6.42144
658.89,-4.91808
661,0.35372
663.11,2.36228
665.22,1.1096
667.33,5.1957
669.44,5.85972
671.55,7.1721
673.66,17.38582
675.77,22.15134
677.88,32.01378
679.98,38.9426
682.09,51.255
684.2,61.1138
686.3,83.9232
688.4,84.4062
690.51,102.7864
692.61,111.3656
694.71,120.886
696.81,130.95
698.92,143.512
701.02,151.266
703.11,160.522
705.21,164.606
707.31,166.132
709.41,175.156
711.51,171.272
713.6,166.354
715.7,158.48
717.79,138.44
719.89,121.484
721.98,107.3656
724.07,85.6078
726.16,81.6446
728.25,73.1146
730.35,61.2518
732.44,61.7956
734.52,64.418
736.61,71.1568
738.7,84.7924
740.79,105.9546
742.87,139.688
744.96,179.648
747.05,226.3
749.13,253.5
751.21,253.396
753.3,217.116
755.38,168.782
757.46,121.808
759.54,84.9666
761.62,61.4014
763.7,39.8968
765.78,25.9002
767.86,16.6576
769.94,12.98698
772.01,4.85812
774.09,0.545134
776.17,-1.474442
778.24,-4.53752
780.32,-4.608554
782.39,-1.33792
784.46,1.9494
786.53,-0.55374
788.61,0.6892
790.68,2.90042
792.75,0.244786
794.82,-0.14636
796.89,-2.457504
798.95,-0.71066
801.02,-1.457962
803.09,-1.292022
805.15,-0.40946
807.22,1.65126
809.28,0.72004
811.35,-1.953268
813.41,-1.14934
815.47,1.949486
817.53,-2.5875
819.6,-6.42724
821.66,-5.39007
823.72,-8.12514
825.78,-9.39918
827.83,-2.90343
829.89,-3.56514
831.95,-3.258498
834,-4.984936
836.06,-3.957846
838.12,1.806862
840.17,2.30594
842.22,2.379
844.28,0.542464
846.33,1.4573889
848.38,3.87404
850.43,2.177
852.48,3.021956
854.53,4.05322
856.58,7.6351
858.63,6.98144
860.67,9.35494
862.72,7.7431
864.77,7.40424
866.81,8.44386
868.86,9.13044
870.9,2.829982
872.94,3.53826
874.98,-0.969218
877.03,0.64842
879.07,1.5186
881.11,4.42014
883.15,3.04668
885.19,2.691
887.22,2.52522
889.26,5.791538
891.3,4.50224
893.33,2.9428
895.37,-1.94853
897.4,-2.75306
899.44,0
901.47,-1.07335272
903.5,2.08592
905.54,4.634172
907.57,2.18538
909.6,5.14958
911.63,0.55216
913.66,4.038116
915.68,2.108394
917.71,0.635298
919.74,-0.998352
921.76,-0.991882
923.79,-1.86986
925.82,1.788798
927.84,2.890949
929.86,3.52234
931.89,1.567166
933.91,4.872196
935.93,5.2116
937.95,2.152988
939.97,1.89706578
941.99,3.4057
944.01,0.44716
946.02,2.0962692
948.04,2.4026
950.06,2.7352
952.07,4.5588
954.09,-1.51096
956.1,2.41392
958.12,7.48504
960.13,5.60424
962.14,3.094382
964.15,4.927342
966.16,0.01911
968.17,-1.60888
970.18,0.15515
972.19,-4.0653
974.2,-1.097134
976.2,-0.2329
978.21,0.5257
980.22,1.249916
982.22,2.449874
984.22,3.210796
986.23,5.42008
988.23,1.237194
990.23,2.42285
992.23,2.890372
994.24,-1.42356
996.23,0.107994
998.23,3.184408
1000.2,3.817534
1002.2,9.95602
1004.2,9.29998
1006.2,7.93688
1008.2,11.51348
1010.2,8.6444
1012.2,10.69506
1014.2,6.65856
1016.2,14.013
1018.2,15.355
1020.2,12.1758
1022.2,14.6546
1024.2,14.74102
1026.1,19.7584
1028.1,21.0438
1030.1,21.8308
1032.1,27.0142
1034.1,26.6532
1036.1,26.862
1038.1,24.22894
1040.1,26.7928
1042,28.0762
1044,35.6786
1046,36.6778
1048,40.2712
1050,43.655
1051.9,44.0076
1053.9,49.0796
1055.9,45.449
1057.9,41.1914
1059.9,40.6392
1061.8,41.3224
1063.8,35.222
1065.8,36.8008
1067.8,34.0496
1069.7,29.6726
1071.7,34.8524
1073.7,23.6658
1075.6,26.328
1077.6,22.9118
1079.6,23.7976
1081.5,19.2054
1083.5,13.23754
1085.5,7.3235
1087.5,9.5083
1089.4,6.3798
1091.4,3.89896
1093.3,7.488328
1095.3,-0.3211
1097.3,6.22598
1099.2,5.787428
1101.2,2.5962
1103.2,2.84214
1105.1,-0.12446
1107.1,2.1828644
1109,2.318664
1111,0.22477
1113,-0.0673874
1114.9,0.181652
1116.9,4.422236
1118.8,0.0134000000000004
1120.8,6.22802
1122.7,6.875982
1124.7,5.077372
1126.6,3.571908404
1128.6,5.716408
1130.5,6.1250074
1132.5,2.436502
1134.4,1.96094
1136.4,9.27234
1138.3,12.47936
1140.3,14.14356
1142.2,11.97292
1144.2,16.1534
1146.1,19.3842
1148.1,12.11014
1150,22.6512
1151.9,23.7542
1153.9,24.6258
1155.8,23.8912
1157.8,23.1456
1159.7,28.1636
1161.6,29.3968
1163.6,34.0036
1165.5,41.5408
1167.5,44.0784
1169.4,49.4908
1171.3,59.197
1173.3,59.443
1175.2,61.2452
1177.1,67.3664
1179.1,78.101
1181,83.101
1182.9,88.6574
1184.9,96.7424
1186.8,110.394
1188.7,117.078
1190.6,129.78
1192.6,141.244
1194.5,149.972
1196.4,162.34
1198.4,169.96
1200.3,179.16
1202.2,188.15
1204.1,200.152
1206,206.162
1208,216.414
1209.9,223.51
1211.8,229.772
1213.7,236.854
1215.6,240.864
1217.6,241.402
1219.5,238.104
1221.4,234.29
1223.3,230.018
1225.2,222.804
1227.1,216.852
1229.1,212.96
1231,205.19
1232.9,191.164
1234.8,185.482
1236.7,177.608
1238.6,171.482
1240.5,155.766
1242.4,150.026
1244.3,138.674
1246.2,132.85
1248.1,123.808
1250.1,119.924
1252,106.944
1253.9,104.2678
1255.8,99.3488
1257.7,92.6724
1259.6,91.445
1261.5,90.6632
1263.4,82.6864
1265.3,83.975
1267.2,80.0608
1269.1,80.4168
1271,76.6278
1272.9,76.2578
1274.8,73.5436
1276.6,72.9402
1278.5,70.1912
1280.4,65.5654
1282.3,64.5074
1284.2,56.0388
1286.1,52.8016
1288,51.9484
1289.9,51.912
1291.8,45.2744
1293.7,40.7196
1295.6,39.4858
1297.4,42.7654
1299.3,40.5814
1301.2,38.117
1303.1,41.5296
1305,36.0686
1306.9,36.1654
1308.7,36.0964
1310.6,36.413
1312.5,36.8862
1314.4,36.0128
1316.3,36.569
1318.1,33.8842
1320,36.524
1321.9,37.4316
1323.8,38.1574
1325.7,40.2786
1327.5,41.0312
1329.4,40.7468
1331.3,41.7148
1333.1,42.277
1335,45.2222
1336.9,48.9632
1338.8,51.8948
1340.6,56.0936
1342.5,61.9836
1344.4,69.531
1346.2,80.2682
1348.1,87.1678
1350,100.1672
1351.8,99.9072
1353.7,105.011
1355.6,103.018
1357.4,98.0572
1359.3,95.4646
1361.1,94.2996
1363,98.332
1364.9,106.2384
1366.7,112.286
1368.6,123.698
1370.4,137.652
1372.3,154.58
1374.2,171.212
1376,188.87
1377.9,215.162
1379.7,234.856
1381.6,248.598
1383.4,258.522
1385.3,253.02
1387.1,250.244
1389,245.94
1390.8,248.406
1392.7,256.806
1394.5,276.614
1396.4,300.082
1398.2,328.924
1400.1,339.83
1401.9,328.39
1403.8,305.168
1405.6,265.166
1407.4,222.278
1409.3,186.232
1411.1,160.29
1413,132.472
1414.8,109.968
1416.6,94.8536
1418.5,68.7454
1420.3,33.8114
1422.2,40.6438
1424,48.9826
1425.8,41.13
1427.7,42.5984
1429.5,34.7102
1431.3,29.4412
1433.2,23.364
1435,19.2402
1436.8,14.30974
1438.7,15.7294
1440.5,14.356
1442.3,9.49438
1444.1,10.90024
1446,8.27938
1447.8,7.32988
1449.6,3.46283404
1451.4,0.379102
1453.3,0.940724
1455.1,2.80114
1456.9,-1.554882
1458.7,-3.948508
1460.6,-2.25272
1462.4,-5.44964
1464.2,-3.901774
1466,-9.0351
1467.8,-3.49126
1469.6,-6.462478
1471.5,-9.52646
1473.3,-8.12744
1475.1,-10.9097
1476.9,-9.90338
1478.7,-8.79682
1480.5,-7.40868
1482.4,-8.64124
1484.2,-5.022706
1486,-10.59906
1487.8,-6.14158
1489.6,-11.96058
1491.4,-9.34934
1493.2,-8.50778
1495,-7.72908
1496.8,-9.11352
1498.6,-8.6744
1500.4,-5.53862
1502.2,-9.05448
1504,-6.8271
1505.8,-7.3612
1507.6,-5.92856
1509.4,-3.325734
1511.2,-5.57584
1513,-5.935956
1514.8,-5.31388
1516.6,-5.09296
1518.4,-0.235968
1520.2,-3.4603294
1522,-3.1497
1523.8,-6.84292
1525.6,-3.30224
1527.4,-2.30016
1529.2,-1.97056
1531,-0.3999
1532.8,-1.61938
1534.6,-3.359178
1536.4,-0.56576
1538.2,0.317854
1539.9,5.782188
1541.7,3.57964
1543.5,7.78022
1545.3,11.773
1547.1,11.52094
1548.9,16.5004
1550.7,22.0746
1552.4,30.938
1554.2,36.4432
1556,40.8794
1557.8,40.9462
1559.6,35.356
1561.3,35.5024
1563.1,38.1242
1564.9,44.4446
1566.7,44.704
1568.4,52.793
1570.2,56.5738
1572,59.8768
1573.8,63.7154
1575.5,70.281
1577.3,80.859
1579.1,82.6604
1580.9,91.0692
1582.6,99.3018
1584.4,105.0346
1586.2,113.476
1587.9,120.932
1589.7,123.838
1591.5,135.524
1593.2,145.714
1595,150.138
1596.8,156.986
1598.5,166.982
1600.3,179.418
1602,189.184
1603.8,195.68
1605.6,210.024
1607.3,217.612
1609.1,231.2
1610.8,236.266
1612.6,242.886
1614.4,257.946
1616.1,270.744
1617.9,275.222
1619.6,281.15
1621.4,288.942
1623.1,301.798
1624.9,307.4
1626.6,313.762
1628.4,320.686
1630.1,332.126
1631.9,336.292
1633.6,338.972
1635.4,344.358
1637.1,345.478
1638.9,350.038
1640.6,349.442
1642.4,351.782
1644.1,357.044
1645.8,358.152
1647.6,361.332
1649.3,362.164
1651.1,360.902
1652.8,357.314
1654.6,356.386
1656.3,356.3
1658,355.49
1659.8,356.342
1661.5,354.294
1663.2,351.274
1665,351.98
1666.7,348.022
1668.4,346.864
1670.2,346.19
1671.9,344.206
1673.6,341.27
1675.4,343.44
1677.1,347.054
1678.8,346.458
1680.5,350.178
1682.3,354.168
1684,355.582
1685.7,360.584
1687.5,368.992
1689.2,378.672
1690.9,385.624
1692.6,396.006
1694.3,406.146
1696.1,417.398
1697.8,428.28
1699.5,442.088
1701.2,454.534
1702.9,464.67
1704.7,472.78
1706.4,486.206
1708.1,494.662
1709.8,501.25
1711.5,508.29
1713.2,510.19
1714.9,513.378
1716.7,508.694
1718.4,507.988
1720.1,498.59
1721.8,489.966
1723.5,479.014
1725.2,465.714
1726.9,457.852
1728.6,444.37
1730.3,429.174
1732,415.984
1733.7,395.596
1735.4,376.008
1737.1,353.528
1738.8,329.55
1740.6,302.216
1742.3,274.286
1744,246.874
1745.7,220.338
1747.3,194.408
1749,177.25
1750.7,156.09
1752.4,133.598
1754.1,117.012
1755.8,101.8004
1757.5,85.839
1759.2,74.7762
1760.9,67.3506
1762.6,58.8912
1764.3,47.2134
1766,41.5966
1767.7,37.3686
1769.4,30.6468
1771.1,28.669
1772.7,23.4784
1774.4,21.7266
1776.1,22.9272
1777.8,15.9911
1779.5,13.23946
1781.2,9.50512
1782.8,9.01226
1784.5,5.97884
1786.2,4.25912
1787.9,-2.87298
1789.6,1.74572
1791.2,1.663578
1792.9,1.92166
1794.6,1.966382
1796.3,-2.59508
1798,-3.489782
1799.6,-3.648918
1801.3,-4.77925114
1803,-2.941414
1804.7,-4.670522
1806.3,-5.62516
1808,-7.29006
1809.7,-4.619088
1811.3,-3.70302
1813,-1.278144
1814.7,-2.17098
1816.3,-3.44906
1818,-3.31972
1819.7,-4.3946
1821.3,-3.476344
1823,-2.862894
1824.7,-0.99482
1826.3,0.495328
1828,-1.25458
1829.7,-2.5451032
1831.3,-2.2255678
1833,-2.968302
1834.6,0.6384404
1836.3,-4.05984
1838,-0.27178
1839.6,-1.952544
1841.3,-0.050834
1842.9,3.3312362
1844.6,0.6100748
1846.2,1.32282
1847.9,-2.997642
1849.5,5.368944
1851.2,4.76986
1852.8,2.431792
1854.5,8.37446
1856.1,4.62206
1857.8,5.017492
1859.4,6.96774
1861.1,6.33845
1862.7,5.9002
1864.4,3.5933
1866,6.08878
1867.7,3.9157
1869.3,4.89974
1871,4.4141
1872.6,4.737522
1874.2,4.37066
1875.9,5.25607
1877.5,3.1181
1879.2,0
1880.8,5.3844
1882.4,-1.5188396
1884.1,3.305798
1885.7,5.271388
1887.3,4.16581
1889,2.07142
1890.6,1.692116
1892.2,0.890932
1893.9,1.956594
1895.5,-3.478526
1897.1,0.686416
1898.8,0.903004
1900.4,0.265674
1902,0.0131000000000001
1903.7,2.411564
1905.3,0.34698
1906.9,-1.71758
1908.5,2.94702
1910.2,2.97248
1911.8,-0.12295
1913.4,-1.315924
1915,-1.059364
1916.7,-0.59415
1918.3,-1.473922
1919.9,2.61302
1921.5,-2.5706992
1923.1,0.94852
1924.8,0.52468
1926.4,0.47688
1928,2.1624894
1929.6,0.540862
1931.2,-0.88486
1932.8,-0.9291
1934.4,0.28852
1936.1,2.75844
1937.7,-0.16751
1939.3,1.647782
1940.9,0.483206
1942.5,0.77154
1944.1,0.47534
1945.7,-0.372139999999999
1947.3,3.14286
1948.9,5.524102
1950.5,0.467202
1952.1,-0.0213444
1953.8,2.610944
1955.4,0.26024
1957,0.82482
1958.6,0.855488
1960.2,2.63178
1961.8,2.937444
1963.4,0.92878
1965,-1.2496
1966.6,0.2826794
1968.2,-0.317856
1969.8,3.132602
1971.4,2.581064
1973,3.42166
1974.5,0.17861
1976.1,2.42712
1977.7,-3.05176
1979.3,2.64122
1980.9,-0.803572
1982.5,-1.25473
1984.1,-2.077728
1985.7,-0.10163
1987.3,1.36193
1988.9,0.47242
1990.5,-1.780678
1992,-1.570378
1993.6,2.443656
1995.2,-0.616186
1996.8,3.1719
1998.4,0.05174
2000,-1.671558
2001.6,0.947418
2003.1,2.51775
2004.7,0.832840000000001
2006.3,1.44328
2007.9,-1.770654
2009.5,2.282598
2011,1.434336
2012.6,1.523406
2014.2,0.211786
2015.8,-0.66282
2017.3,-0.259522
2018.9,-0.263658
2020.5,1.40376
2022.1,2.172498
2023.6,2.850596
2025.2,2.604215
2026.8,-1.100928
2028.3,1.93894
2029.9,-0.699174
2031.5,-0.0101400000000001
2033,3.19896
2034.6,0.958848
2036.2,-0.35816
2037.7,2.84794
2039.3,2.323496
2040.9,3.291602
2042.4,3.066794
2044,1.0725
2045.6,0.942822
2047.1,2.76932
2048.7,-0.25584
2050.2,-0.60179
2051.8,0.108018
2053.4,2.481868
2054.9,2.017658
2056.5,0.59088
2058,2.11126
2059.6,2.214342
2061.1,1.02242
2062.7,2.36372
2064.2,2.354462
2065.8,3.278046
2067.3,4.0583
2068.9,0.31374
2070.4,0.505946
2072,0.720756
2073.5,1.21274
2075.1,-0.2993332
2076.6,3.543134
2078.2,-2.912992
2079.7,3.60838
2081.3,6.63572
2082.8,5.7649
2084.4,4.56904
2085.9,3.075414
2087.4,4.5386
2089,4.4851
2090.5,5.8723
2092.1,4.497178
2093.6,4.101256
2095.1,6.90648
2096.7,4.68176
2098.2,5.8975
2099.7,7.28494
2101.3,4.48617
2102.8,6.882178
2104.3,6.22266
2105.9,7.35302
2107.4,7.87136
2108.9,6.86578
2110.5,6.25124
2112,5.82198
2113.5,7.026368
2115.1,8.1471
2116.6,8.8567834
2118.1,5.71986
2119.6,7.16816
2121.2,9.40024
2122.7,6.225634
2124.2,8.76488
2125.7,6.66602
2127.3,8.5601
2128.8,9.78868
2130.3,12.83548
2131.8,16.7806
2133.3,26.766
2134.9,43.5104
2136.4,58.8774
2137.9,63.0818
2139.4,54.7876
2140.9,43.1838
2142.4,26.8904
2144,21.0904
2145.5,10.46864
2147,9.92788
2148.5,7.74371
2150,7.89998
2151.5,5.49466
2153,6.48076
2154.5,3.339528
2156,5.31992
2157.6,3.8979
2159.1,4.4672
2160.6,2.69092
2162.1,2.05036
2163.6,1.052752
2165.1,-0.881304
2166.6,1.977216
2168.1,1.485822
2169.6,-4.82298
2171.1,6.247526
2172.6,3.034158
2174.1,2.658636
2175.6,2.62844
2177.1,3.441174
2178.6,-0.2694098
2180.1,3.25358
2181.6,2.034516
2183.1,-3.181738
2184.6,0.275268
2186.1,-1.49742
2187.5,-1.689488
2189,-1.3275426
2190.5,-2.457638
2192,-1.50193
2193.5,-2.143008
2195,1.378202
2196.5,0.686374
2198,-0.241566
2199.5,-1.45456
2201,-3.405524
2202.4,-1.213368
2203.9,0.8054
2205.4,-2.654882
2206.9,-1.715578
2208.4,2.200192
2209.9,0.958782
2211.3,1.450147
2212.8,-0.1694
2214.3,-0.55191
2215.8,-0.6439722
2217.3,-1.501096
2218.7,-1.32268
2220.2,-0.139742
2221.7,2.838564
2223.2,-0.0549660000000001
2224.6,2.19208
2226.1,2.244198
2227.6,3.44178
2229.1,2.019824
2230.5,0.54212
2232,-0.50567
2233.5,2.058706
2234.9,-0.736668
2236.4,2.77592
2237.9,1.548967
2239.3,0.91506
2240.8,-0.566472
2242.3,2.19978
2243.7,2.807484
2245.2,1.21661
2246.7,0.161558
2248.1,1.2294624
2249.6,0.3639946
2251.1,2.51492
2252.5,1.896748
2254,3.58806
2255.4,1.512214
2256.9,1.3017
2258.3,3.104682
2259.8,0.0341699999999999
2261.3,-1.797508
2262.7,1.83822
2264.2,2.311284
2265.6,3.82288
2267.1,-0.693862
2268.5,1.27994
2270,2.137032
2271.4,0.29936
2272.9,1.86782
2274.3,0
2275.8,4.300888
2277.2,3.19542
2278.7,1.607176
2280.1,3.010202
2281.6,1.00514
2283,3.853898
2284.5,1.86466
2285.9,-0.481198
2287.4,2.53626
2288.8,0.852
2290.2,2.032318
2291.7,3.36286
2293.1,1.032142
2294.6,2.015878
2296,-0.0130459999999999
2297.4,3.172158
2298.9,4.113912
2300.3,0.87602
2301.7,4.594
2303.2,0.54607
2304.6,-0.469676
2306,1.065088
2307.5,-0.217816
2308.9,3.63521
2310.3,1.35204
2311.8,5.01624
2313.2,0.883526
2314.6,1.72079
2316.1,0.547872
2317.5,2.276016
2318.9,1.396836
2320.3,5.59394
2321.8,5.94662
2323.2,8.3294
2324.6,12.14136
2326,17.9206
2327.5,27.7962
2328.9,29.2308
2330.3,29.5476
2331.7,25.3814
2333.2,13.52228
2334.6,11.04434
2336,7.06844
2337.4,5.54506
2338.8,3.82656
2340.2,4.063292
2341.7,2.98946
2343.1,3.87656
2344.5,2.664236
2345.9,4.14172
2347.3,-3.5965004
2348.7,5.07728
2350.1,2.736438
2351.6,1.145106
2353,0.83289
2354.4,2.361966
2355.8,1.534674
2357.2,0.11916
2358.6,-4.990366
2360,3.3697
2361.4,6.34852
2362.8,2.73394
2364.2,0.87994
2365.6,-1.6884
2367,5.352978
2368.4,4.77448
2369.8,1.822736
2371.2,2.66633
2372.6,0.738432
2374,4.0229
2375.4,1.254938
2376.8,3.976554
2378.2,4.628774
2379.6,4.837834
2381,3.0328384
2382.4,3.27522
2383.8,0.890472
2385.2,3.62038
2386.6,1.095596
2388,0.93662
2389.4,0.202924
2390.8,2.334132
2392.1,2.16789118
2393.5,0.896982
2394.9,2.000856
2396.3,-2.495174
2397.7,1.03916
2399.1,1.76548
2400.5,0.884092
2401.9,0.447594
2403.2,0.458682
2404.6,1.20288
2406,-0.974334
2407.4,3.25242
2408.8,-0.060658
2410.2,1.553772
2411.5,2.865972
2412.9,-1.741808
2414.3,2.090676
2415.7,0
2417,-0.89974
2418.4,2.367068
2419.8,1.716
2421.2,-1.156999
2422.5,-0.71034
2423.9,0.4055
2425.3,1.849224
2426.7,-0.87634
2428,-0.580614
2429.4,-1.635472
2430.8,-0.682346
2432.1,-1.805878
2433.5,-0.693778
2434.9,-1.40502
2436.2,0.199959
2437.6,2.87364
2439,-0.0885100000000001
2440.3,0.3405996
2441.7,-0.43408
2443.1,-1.938666
2444.4,0.1851
2445.8,-0.796462
2447.2,1.595102
2448.5,1.25295
2449.9,-3.14506
2451.2,-1.25786
2452.6,1.257916
2454,-0.0439
2455.3,-2.297944
2456.7,1.845962
2458,0.67516
2459.4,-0.856962
2460.7,-3.384374
2462.1,-3.88937
2463.4,-0.420329
2464.8,0.892824
2466.1,1.633136
2467.5,-0.557
2468.8,1.420228
2470.2,-0.658046
2471.5,-0.126466
2472.9,-1.8543342
2474.2,-1.997694
2475.6,-3.655522
2476.9,-1.850188
2478.3,-1.333824
2479.6,0.704077
2481,1.8741
2482.3,0.987294
2483.6,-0.511562
2485,-1.28287
2486.3,1.570802
2487.7,-2.08318
2489,-0.52616
2490.3,-0.9719334
2491.7,-1.207826
2493,-0.9031
2494.4,1.20884
2495.7,-0.02865
2497,-0.8748852
2498.4,-3.23944
2499.7,-1.90708
2501,0.277378
2502.4,-1.747116
2503.7,-2.13664
2505,1.232408
2506.4,1.8455274
2507.7,0.299762
2509,-0.6664274
2510.3,-0.10084
2511.7,-3.11408
2513,-1.9166
2514.3,-0.0594840000000001
2515.6,-2.0236
2517,-2.404644
2518.3,-0.0566599999999999
2519.6,-1.2351548
2520.9,0
2522.3,0.3698568
2523.6,-1.019356
2524.9,-0.4144
2526.2,-0.32112
2527.5,-0.827212
2528.9,-0.863054
2530.2,-1.181507
2531.5,-1.204948
2532.8,1.36728
2534.1,0.212772
2535.4,2.99013
2536.8,1.400392
2538.1,-0.14908
2539.4,2.560188
2540.7,2.548744
2542,1.8854
2543.3,1.717158
2544.6,1.552382
2545.9,-0.78852
2547.2,-0.1709
2548.6,-2.06462
2549.9,2.85833
2551.2,1.43906
2552.5,4.134544
2553.8,3.126818
2555.1,3.7671942
2556.4,2.2836686
2557.7,3.31317
2559,1.990628
2560.3,1.290452
2561.6,0.9853742
2562.9,1.41096
2564.2,1.40798
2565.5,1.04548
2566.8,4.515546
2568.1,4.4575
2569.4,3.055846
2570.7,4.522792
2572,5.54946
2573.3,3.48354
2574.6,1.919936
2575.9,5.02278
2577.1,1.689056
2578.4,1.862192
2579.7,1.58232
2581,4.38074
2582.3,3.839796
2583.6,3.70566
2584.9,5.66658
2586.2,2.286874
2587.5,4.88868
2588.7,1.4073936
2590,4.66366
2591.3,1.68242
2592.6,0.515904
2593.9,2.950158
2595.2,-1.461672
2596.4,1.535994
2597.7,2.180088
2599,0.786348
2600.3,1.15236
2601.6,2.96614
2602.8,2.37919
2604.1,4.06196
2605.4,3.82278
2606.7,1.029384
2608,2.818864
2609.2,2.983796
2610.5,-0.0574199999999998
2611.8,-0.25956
2613,0.340824
2614.3,-0.31402
2615.6,1.11144
2616.9,0.895184
2618.1,-1.469996
2619.4,-1.42246
2620.7,-1.421602
2621.9,-0.563362
2623.2,0.572478
2624.5,-1.284322
2625.7,-3.89958
2627,-1.63498
2628.3,-0.489522
2629.5,0
2630.8,-1.90732
2632.1,-1.16762
2633.3,-0.2951
2634.6,0.491412
2635.8,-1.4139
2637.1,-3.35004
2638.4,-1.76296
2639.6,-3.090068
2640.9,-4.15772
2642.1,-3.388208
2643.4,-2.150362
2644.6,-4.70864
2645.9,-3.2180422
2647.2,-3.2974
2648.4,-2.239174
2649.7,-1.7029
2650.9,-2.67254
2652.2,-1.55156
2653.4,-4.50386
2654.7,-5.1041
2655.9,-4.698582
2657.2,-4.8602
2658.4,-4.13082
2659.7,-0.0922438
2660.9,-2.6977
2662.2,-0.36271
2663.4,-5.79018
2664.6,-2.831184
2665.9,-4.213339
2667.1,-4.429138
2668.4,-1.69024
2669.6,-1.50072
2670.9,-3.817
2672.1,-3.88964
2673.3,-1.481842
2674.6,-2.685934
2675.8,-5.35766
2677.1,-4.340846
2678.3,-4.04409
2679.5,-1.06946
2680.8,-1.232154
2682,-3.2134
2683.2,-1.38596
2684.5,-2.88054
2685.7,-1.181116
2686.9,-2.23638
2688.2,-2.43542
2689.4,-1.43114
2690.6,-3.100002
2691.9,-6.03892
2693.1,-3.65542
2694.3,-1.525992
2695.5,-2.572482
2696.8,-1.02856
2698,-0.88848
2699.2,-3.69396
2700.4,-1.2544513
2701.7,-2.41282
2702.9,-1.91302
2704.1,0.90822
2705.3,-3.2029
2706.6,-0.445958
2707.8,0.954996
2709,-2.695304
2710.2,-1.58664
2711.4,-2.5367
2712.6,-1.58208
2713.9,-0.87844
2715.1,0.08574
2716.3,1.654
2717.5,-1.584642
2718.7,-0.64054
2719.9,-2.702758
2721.2,-0.663882
2722.4,0.41894
2723.6,2.018784
2724.8,-0.0189680000000001
2726,0
2727.2,0.505032
2728.4,1.7299
2729.6,1.313744
2730.8,-0.266328
2732,-0.6802
2733.3,1.1552512
2734.5,1.856192
2735.7,0.61912
2736.9,2.1529292
2738.1,0.94686
2739.3,-0.129126
2740.5,2.132674
2741.7,1.44484
2742.9,0.87498
2744.1,2.272826
2745.3,1.06755
2746.5,3.076162
2747.7,-0.522244
2748.9,3.997308
2750.1,3.656612
2751.3,0.42324
2752.5,1.011962
2753.7,1.172118
2754.9,2.739378
2756,1.552
2757.2,1.267822
2758.4,4.60004
2759.6,1.9946
2760.8,3.9157
2762,1.720874
2763.2,3.9981894
2764.4,5.61998
2765.6,2.84554
2766.8,5.72118
2767.9,6.0301
2769.1,8.029228
2770.3,5.4202
2771.5,7.07786
2772.7,7.45322
2773.9,7.22024
2775.1,8.17362
2776.2,6.17154
2777.4,7.66666
2778.6,7.49614
2779.8,9.28322
2781,7.08932
2782.1,7.04336
2783.3,5.14776
2784.5,7.6801
2785.7,5.088004
2786.8,3.280282
2788,4.214548
2789.2,5.11804
2790.4,6.1671
2791.5,2.7895014
2792.7,4.27896
2793.9,3.8775
2795.1,3.01932
2796.2,1.681286
2797.4,3.2233
2798.6,-0.668016
2799.7,0.96802
2800.9,1.67972
2802.1,4.2574
2803.2,0.13626
2804.4,2.011162
2805.6,2.1285884
2806.7,-1.18372
2807.9,2.41182
2809.1,-0.125444
2810.2,0.206314
2811.4,1.204916
2812.6,1.31588
2813.7,1.79378
2814.9,2.44482
2816,4.181652
2817.2,0.12296
2818.4,0
2819.5,0.873368
2820.7,1.524034
2821.8,0.286435
2823,2.08478
2824.1,2.484082
2825.3,0.589114
2826.4,-0.0431000000000001
2827.6,2.84818
2828.7,2.87196
2829.9,0.45381
2831,1.044972
2832.2,-0.98104
2833.3,2.02534
2834.5,-0.4821492
2835.6,0.75907
2836.8,-0.0415074
2837.9,-3.18974
2839.1,1.07861
2840.2,2.46078
2841.4,-2.09014056
2842.5,-0.141366
2843.7,-2.621974
2844.8,-2.938192
2845.9,0.41154
2847.1,-1.420586
2848.2,-2.999998
2849.4,-2.41606
2850.5,-0.226954
2851.7,0.152904
2852.8,-0.9541
2853.9,-0.186696
2855.1,-4.66584
2856.2,-0.283416
2857.3,-3.500116
2858.5,-2.54306
2859.6,-1.55184
2860.7,-3.17997
2861.9,-4.658514
2863,-2.595862
2864.1,-0.450426
2865.3,-2.69534
2866.4,-4.765756
2867.5,-1.79818
2868.7,-1.225116
2869.8,-1.92184914
2870.9,-3.23764
2872,-3.785048
2873.2,-0.632688
2874.3,1.3529682
2875.4,-1.520532
2876.5,-0.28832
2877.7,-2.04326
2878.8,-2.12692
2879.9,-0.327599
2881,0.3088812
2882.2,2.4345312
2883.3,-0.00317199999999997
2884.4,4.43518
2885.5,6.09386
2886.6,4.9809
2887.8,4.080942
2888.9,2.1788106
2890,7.54986
2891.1,8.21414
2892.2,7.6136
2893.3,8.86142
2894.4,12.37186
2895.6,9.89146
2896.7,12.95258
2897.8,13.9906
2898.9,14.377
2900,17.0756
2901.1,18.312
2902.2,21.2908
2903.3,19.1922
2904.4,24.7142
2905.6,24.2248
2906.7,25.4162
2907.8,28.3998
2908.9,29.4014
2910,32.8944
2911.1,36.5984
2912.2,35.8018
2913.3,40.2396
2914.4,39.56
2915.5,44.1156
2916.6,45.2844
2917.7,47.4698
2918.8,46.563
2919.9,52.8684
2921,56.1312
2922.1,56.8264
2923.2,59.359
2924.3,63.5902
2925.4,59.1202
2926.5,66.6784
2927.6,68.4656
2928.7,70.5008
2929.8,70.7428
2930.8,72.2304
2931.9,76.2612
2933,77.6772
2934.1,82.0854
2935.2,82.9516
2936.3,82.8782
2937.4,83.692
2938.5,86.4102
2939.6,86.3124
2940.6,86.9332
2941.7,89.3806
2942.8,88.8554
2943.9,89.8202
2945,91.2538
2946.1,86.8082
2947.2,91.0748
2948.2,90.3024
2949.3,90.351
2950.4,85.643
2951.5,82.343
2952.6,82.9848
2953.6,81.641
2954.7,77.3228
2955.8,75.0746
2956.9,73.4092
2957.9,70.8758
2959,65.659
2960.1,61.6208
2961.2,58.6782
2962.2,58.3898
2963.3,55.3984
2964.4,51.9618
2965.5,47.627
2966.5,43.3098
2967.6,43.827
2968.7,39.0356
2969.7,36.6904
2970.8,34.1368
2971.9,34.1482
2973,30.5088
2974,28.97
2975.1,26.6402
2976.2,27.2016
2977.2,26.3218
2978.3,25.3454
2979.3,23.9398
2980.4,26.1496
2981.5,21.6694
2982.5,22.2634
2983.6,20.663
2984.7,19.9274
2985.7,19.5598
2986.8,20.3326
2987.8,17.43236
2988.9,19.9554
2989.9,20.7312
2991,21.738
2992.1,22.4174
2993.1,21.9176
2994.2,18.7884
2995.2,18.6774
2996.3,21.7146
2997.3,20.2466
2998.4,19.65586
2999.4,22.7688
3000.5,21.408
3001.5,22.5232
3002.6,23.7072
3003.6,23.8418
3004.7,22.0792
3005.7,23.2252
3006.8,23.5182
3007.8,25.3272
3008.9,25.9378
3009.9,29.463
3011,27.8374
3012,27.7842
3013,27.5618
3014.1,29.3624
3015.1,32.2166
3016.2,31.8532
3017.2,34.1702
3018.2,33.7658
3019.3,31.4636
3020.3,33.1202
3021.4,34.9936
3022.4,33.0062
3023.4,34.6486
3024.5,37.8512
3025.5,38.1842
3026.5,38.27
3027.6,39.303
3028.6,42.4338
3029.6,40.2166
3030.7,41.0758
3031.7,44.7686
3032.7,41.8764
3033.8,44.369
3034.8,48.9104
3035.8,49.1454
3036.9,49.5664
3037.9,50.8208
3038.9,49.4004
3039.9,52.7
3041,53.9094
3042,55.005
3043,53.3684
3044,54.9414
3045.1,58.0272
3046.1,57.6908
3047.1,59.6084
3048.1,59.7696
3049.2,58.9086
3050.2,65.0034
3051.2,63.2116
3052.2,64.25
3053.2,67.0978
3054.3,66.5806
3055.3,69.1226
3056.3,70.7446
3057.3,70.3616
3058.3,71.5224
3059.3,71.8254
3060.3,75.3502
3061.4,77.0296
3062.4,78.1146
3063.4,78.83
3064.4,78.9264
3065.4,80.5386
3066.4,83.8984
3067.4,83.0952
3068.4,85.6378
3069.5,85.9598
3070.5,89.5272
3071.5,89.7034
3072.5,89.8748
3073.5,91.4196
3074.5,92.3274
3075.5,94.3644
3076.5,98.6092
3077.5,97.5514
3078.5,102.1684
3079.5,105.2292
3080.5,103.4302
3081.5,106.2384
3082.5,106.242
3083.5,106.338
3084.5,109.268
3085.5,111.938
3086.5,110.2
3087.5,114.432
3088.5,115.526
3089.5,118.12
3090.5,118.496
3091.5,119.96
3092.5,123.91
3093.5,123.93
3094.5,128.43
3095.5,129.254
3096.4,132.752
3097.4,129.888
3098.4,133.436
3099.4,134.072
3100.4,135.202
3101.4,137.402
3102.4,143.202
3103.4,141.946
3104.4,137.19
3105.3,146.008
3106.3,148.574
3107.3,148.316
3108.3,150.174
3109.3,155.752
3110.3,154.762
3111.3,158.892
3112.2,159.736
3113.2,161.3
3114.2,163.738
3115.2,164.526
3116.2,169.528
3117.1,169.628
3118.1,169.15
3119.1,172.73
3120.1,173.92
3121,173.996
3122,177.702
3123,178.038
3124,183.858
3124.9,184.28
3125.9,185.18
3126.9,187.902
3127.9,192.074
3128.8,192.758
3129.8,196.286
3130.8,197.868
3131.7,195.928
3132.7,196.41
3133.7,202.794
3134.7,205.724
3135.6,203.732
3136.6,207.092
3137.6,205.994
3138.5,207.302
3139.5,211.83
3140.4,215.32
3141.4,214.952
3142.4,218.63
3143.3,215.426
3144.3,221.418
3145.3,219.9
3146.2,219.124
3147.2,221.462
3148.1,225.41
3149.1,228.104
3150.1,229.022
3151,233.232
3152,231.406
3152.9,233.91
3153.9,230.694
3154.8,235.034
3155.8,235.264
3156.7,237.846
3157.7,239.362
3158.6,241.73
3159.6,240.058
3160.6,242.388
3161.5,244.742
3162.5,246.948
3163.4,245.682
3164.4,247.21
3165.3,243.756
3166.2,247.86
3167.2,250.976
3168.1,250.71
3169.1,248.714
3170,251.094
3171,255.17
3171.9,253.792
3172.9,252.812
3173.8,256.886
3174.7,252.648
3175.7,251.514
3176.6,253.886
3177.6,257.104
3178.5,256.96
3179.5,254.454
3180.4,255.722
3181.3,256.504
3182.3,258.792
3183.2,261.332
3184.1,262.976
3185.1,260.31
3186,258.416
3186.9,262.112
3187.9,262.196
3188.8,261.418
3189.7,259.566
3190.7,258.878
3191.6,258.342
3192.5,260.756
3193.5,257.498
3194.4,264.382
3195.3,262.356
3196.3,259.226
3197.2,260.258
3198.1,257.446
3199,257.434
3200,256.722
3200.9,253.946
3201.8,255.954
3202.7,257.668
3203.7,257.2
3204.6,254.45
3205.5,253.998
3206.4,251.974
3207.3,246.762
3208.3,251.868
3209.2,244.416
3210.1,246.694
3211,244.188
3211.9,242.414
3212.9,241.23
3213.8,241.166
3214.7,236.826
3215.6,235.738
3216.5,238.454
3217.4,234.356
3218.4,231.428
3219.3,228.754
3220.2,225.38
3221.1,222.526
3222,219.256
3222.9,217.64
3223.8,217.116
3224.7,215.656
3225.6,213.884
3226.6,209.534
3227.5,206.836
3228.4,204
3229.3,199.004
3230.2,199.588
3231.1,198.56
3232,194.558
3232.9,185.758
3233.8,187.252
3234.7,182.8
3235.6,177.994
3236.5,177.822
3237.4,171.046
3238.3,170.292
3239.2,164.82
3240.1,158.966
3241,155.59
3241.9,152.964
3242.8,148.056
3243.7,141.058
3244.6,137.808
3245.5,131.878
3246.4,123.24
3247.3,117.374
3248.2,108.73
3249.1,100.9564
3250,90.2082
3250.9,78.397
3251.8,68.0796
3252.7,60.086
3253.5,43.8924
3254.4,32.1122
3255.3,12.6224
3256.2,-8.7323
