250.34,-7.8151
252.57,-5.8825
254.8,0
257.03,0.101516
259.26,5.20182
261.48,4.68346
263.71,5.57326
265.94,-5.082572
268.16,0.8017
270.39,5.38594
272.61,3.79164
274.84,1.9813
277.06,-0.99636
279.28,5.21906
281.51,2.50808
283.73,0.617006
285.95,4.83156
288.17,6.467062
290.39,1.582848
292.61,4.81092
294.83,-4.146888
297.05,4.4379
299.27,4.54594
301.48,7.2341
303.7,12.66548
305.91,11.81474
308.13,11.38194
310.35,6.71094
312.56,4.617018
314.77,4.93202
316.99,1.17878
319.2,-1.176822
321.41,-0.816218
323.62,4.8706214
325.83,-0.1015914
328.04,2.8728194
330.25,-3.155338
332.46,4.607484
334.67,4.40984
336.88,12.0182
339.08,12.043
341.29,20.3658
343.5,33.8474
345.7,66.078
347.91,130.452
350.11,305.168
352.31,579.874
354.52,748.096
356.72,654.774
358.92,415.106
361.12,231.346
363.32,126.938
365.52,79.85
367.72,53.571
369.92,41.2004
372.12,36.6286
374.32,43.2194
376.51,65.0236
378.71,77.981
380.9,63.2678
383.1,39.5622
385.29,17.42138
387.49,20.02826
389.68,12.85032
391.87,0.24618
394.07,-1.6628952
396.26,1.4238984
398.45,1.1215
400.64,10.34588
402.83,13.34194
405.02,20.68644
407.21,35.5032
409.39,62.86
411.58,148.148
413.77,388.282
415.95,656.986
418.14,700
420.32,462.534
422.51,223.606
424.69,117.602
426.87,87.4754
429.06,86.1306
431.24,70.1276
433.42,56.0654
435.6,26.289
437.78,14.8906
439.96,4.41626
442.14,-0.0801666
444.31,10.9308
446.49,36.7764
448.67,42.5828
450.84,39.1878
453.02,16.6886
455.19,-1.40912
457.37,5.949666
459.54,0.53854
461.71,-4.35944
463.89,-0.73186
466.06,-7.5036098
468.23,-7.28646
470.4,-6.51914
472.57,-12.87518
474.74,-5.51992
476.91,-9.41978
479.07,-9.31162
481.24,4.6542
483.41,9.75898
485.57,3.9643
487.74,4.397154
489.9,6.450002
492.07,4.79582
494.23,-2.39906
496.4,-7.70112
498.56,-9.36696
500.72,-8.34734
502.88,-3.372544
505.04,-8.659318
507.2,-11.284978
509.36,-4.05086
511.52,-8.3639
513.68,-10.14042
515.83,-0.702716
517.99,4.034924
520.14,-0.9002
522.3,-0.28362
524.45,2.03752
526.61,2.936278
528.76,-3.921266
530.91,7.82386
533.07,12.32346
535.22,2.961486
537.37,9.14876
539.52,11.728
541.67,9.3495
543.82,7.07116
545.97,11.2727
548.11,8.34482
550.26,-1.180928
552.41,-1.14912
554.55,-0.30334
556.7,2.63202
558.84,5.80398
560.98,9.395662
563.13,20.37324
565.27,24.5696
567.41,30.4396
569.55,51.9284
571.69,88.8116
573.83,166.882
575.97,242.228
578.11,311.01
580.25,426.746
582.39,792.04
584.52,1467.32
586.66,1997.72
588.79,1867.94
590.93,1249.82
593.06,681.748
595.19,357.422
597.33,194.678
599.46,115.4276
601.59,60.396
603.72,35.7818
605.85,19.443
607.98,-0.0336392
610.11,5.7595
612.24,-6.58652
614.36,-5.536044
616.49,-2.1247476
618.62,-0.6632
620.74,1.78475
622.87,5.190198
624.99,-0.053148
627.11,-0.149596
629.24,-0.094
631.36,-3.063052
633.48,6.7481128
635.6,1.3328
637.72,5.969612
639.84,4.183384
641.96,0.0578522
644.08,-3.021608
646.2,-1.367954
648.31,-3.0363266
650.43,-6.3624
652.54,-10.95724
654.66,-13.18834
656.77,-7.39162
658.89,-8.76672
661,-8.63534
663.11,-4.95936
665.22,-13.27602
667.33,-11.28276
669.44,-20.8864
671.55,-23.5218
673.66,-21.908
675.77,-23.8776
677.88,-25.3764
679.98,-20.5656
682.09,-19.91406
684.2,-13.29918
686.3,-17.19572
688.4,-18.9006
690.51,-14.83122
692.61,-8.12666
694.71,-1.7345
696.81,-0.48399
698.92,1.45326
701.02,-2.08176
703.11,3.316072
705.21,6.61728
707.31,7.37208
709.41,6.95492
711.51,9.75788
713.6,10.66658
715.7,10.37846
717.79,7.95476
719.89,7.5836
721.98,9.06324
724.07,5.03802
726.16,8.81908
728.25,10.66834
730.35,8.2964
732.44,20.9784
734.52,29.6172
736.61,39.627
738.7,62.3334
740.79,91.2684
742.87,133.622
744.96,177.364
747.05,229.95
749.13,265.084
751.21,266.692
753.3,230.402
755.38,171.436
757.46,120.25
759.54,87.221
761.62,56.6278
763.7,38.5572
765.78,26.661
767.86,17.5714
769.94,11.14128
772.01,6.370296
774.09,-1.384208
776.17,3.825066
778.24,-3.34934
780.32,6.1031846
782.39,4.04316
784.46,-1.03142
786.53,10.19376
788.61,4.05958
790.68,5.767668
792.75,10.3155
794.82,5.61673
796.89,7.42684
798.95,7.02726
801.02,11.1424
803.09,12.80558
805.15,24.2668
807.22,38.3144
809.28,97.7148
811.35,219.818
813.41,343.53
815.47,343.066
817.53,219.568
819.6,115.2234
821.66,58.2574
823.72,26.3646
825.78,12.76908
827.83,12.04932
829.89,3.23278
831.95,11.00326
834,4.01308
836.06,5.25164
838.12,3.94382
840.17,8.972966
842.22,1.320704
844.28,0.345862
846.33,4.56808
848.38,4.28804
850.43,3.2104132
852.48,6.91164
854.53,8.37706
856.58,6.53442
858.63,6.66808
860.67,6.678874
862.72,6.58926
864.77,-1.149622
866.81,5.071812
868.86,4.4313
870.9,-0.476856
872.94,1.512548
874.98,-0.410684
877.03,-0.979116
879.07,3.811706
881.11,0.29948
883.15,0.10256
885.19,4.77826
887.22,5.5642638
889.26,2.70836
891.3,5.742584
893.33,3.817926
895.37,-4.25293
897.4,-0.206506
899.44,0
901.47,-1.4307
903.5,-0.23536
905.54,8.449464
907.57,8.8443
909.6,5.3428
911.63,2.850842
913.66,3.32996
915.68,7.55228
917.71,-0.248122
919.74,-1.714912
921.76,1.00646
923.79,-6.688344
925.82,1.311604
927.84,6.86092
929.86,4.6279
931.89,4.80704
933.91,11.08378
935.93,9.14906
937.95,5.302862
939.97,3.716604
941.99,1.03408
944.01,-0.48328
946.02,1.038708
948.04,4.66256
950.06,2.6613
952.07,-1.511006
954.09,1.78882
956.1,1.045194
958.12,6.44634
960.13,1.35738
962.14,3.15358
964.15,1.49968
966.16,-0.5070572
968.17,0.2705
970.18,-0.02931
972.19,1.12288
974.2,-1.890872
976.2,4.80068
978.21,1.015562
980.22,5.74032
982.22,7.37864
984.22,3.71402
986.23,7.55336
988.23,0.4908124
990.23,8.246104
992.23,5.4676
994.24,5.91896
996.23,7.47163
998.23,9.120342
1000.2,11.67754
1002.2,18.1266
1004.2,19.78538
1006.2,15.69274
1008.2,18.98692
1010.2,13.5858
1012.2,18.3996
1014.2,20.7148
1016.2,25.11
1018.2,26.0898
1020.2,21.1902
1022.2,25.8083
1024.2,32.0572
1026.1,40.535
1028.1,56.276
1030.1,107.738
1032.1,213.078
1034.1,284.27
1036.1,261.578
1038.1,158.09
1040.1,87.338
1042,53.3732
1044,39.665
1046,35.0956
1048,32.7828
1050,37.8308
1051.9,31.4804
1053.9,27.8138
1055.9,26.6416
1057.9,25.1256
1059.9,20.2982
1061.8,17.7336
1063.8,20.236
1065.8,14.25322
1067.8,17.90256
1069.7,10.834686
1071.7,21.2974
1073.7,17.18508
1075.6,19.70102
1077.6,18.15538
1079.6,14.8844
1081.5,12.73306
1083.5,13.8092
1085.5,7.53142
1087.5,7.850118
1089.4,4.354996
1091.4,9.4533
1093.3,3.78526
1095.3,6.41
1097.3,9.94432
1099.2,12.62688
1101.2,2.48206
1103.2,8.1932
1105.1,8.24988
1107.1,4.039022
1109,0.6069
1111,1.91538
1113,-1.9695492
1114.9,5.2764882
1116.9,1.83081
1118.8,-0.361544
1120.8,3.93436
1122.7,5.48034
1124.7,6.32446
1126.6,7.37844
1128.6,7.318284
1130.5,9.1362
1132.5,7.475258
1134.4,3.70804
1136.4,13.02208
1138.3,13.54988
1140.3,9.99548
1142.2,8.26406
1144.2,14.6412
1146.1,16.28488
1148.1,16.83496
1150,19.0482
1151.9,19.3462
1153.9,14.95756
1155.8,16.2917
1157.8,13.8266
1159.7,16.74002
1161.6,18.53696
1163.6,21.6242
1165.5,22.1614
1167.5,21.97904
1169.4,20.532
1171.3,24.0898
1173.3,24.018
1175.2,23.5156
1177.1,23.2478
1179.1,24.2034
1181,24.322
1182.9,25.8092
1184.9,27.8068
1186.8,32.7378
1188.7,32.4148
1190.6,33.5126
1192.6,34.6914
1194.5,39.6274
1196.4,36.4996
1198.4,39.196
1200.3,42.8902
1202.2,42.3494
1204.1,41.9018
1206,40.9886
1208,42.5466
1209.9,47.343
1211.8,52.5188
1213.7,52.0104
1215.6,54.734
1217.6,52.7196
1219.5,57.9268
1221.4,54.2046
1223.3,58.0896
1225.2,56.9826
1227.1,55.6394
1229.1,60.5308
1231,58.9216
1232.9,59.6654
1234.8,62.1418
1236.7,65.5252
1238.6,69.5362
1240.5,72.858
1242.4,74.7608
1244.3,85.5278
1246.2,92.6356
1248.1,93.0708
1250.1,95.6014
1252,99.6024
1253.9,108.0602
1255.8,109.794
1257.7,124.098
1259.6,146.158
1261.5,164.342
1263.4,192.102
1265.3,210.186
1267.2,229.902
1269.1,256.55
1271,276.328
1272.9,300.066
1274.8,308.998
1276.6,311.11
1278.5,298.478
1280.4,301.758
1282.3,335.336
1284.2,353.616
1286.1,319.642
1288,247.116
1289.9,181.978
1291.8,152.38
1293.7,131.142
1295.6,119.754
1297.4,112.4884
1299.3,107.376
1301.2,102.5304
1303.1,96.9626
1305,92.3934
1306.9,91.3642
1308.7,90.267
1310.6,83.9362
1312.5,87.1384
1314.4,82.9348
1316.3,81.2314
1318.1,79.6198
1320,77.0948
1321.9,77.4476
1323.8,76.4738
1325.7,78.7352
1327.5,75.0036
1329.4,77.145
1331.3,78.6234
1333.1,75.6336
1335,77.1112
1336.9,79.6768
1338.8,80.172
1340.6,85.6978
1342.5,83.0794
1344.4,89.9362
1346.2,97.0756
1348.1,100.9054
1350,104.2956
1351.8,115.58
1353.7,119.824
1355.6,124.298
1357.4,127.102
1359.3,137.57
1361.1,147.718
1363,161.504
1364.9,183.278
1366.7,212.628
1368.6,240.908
1370.4,279.9
1372.3,339.578
1374.2,427.572
1376,539.266
1377.9,695.38
1379.7,850.864
1381.6,963.298
1383.4,1013.244
1385.3,1002.734
1387.1,932.238
1389,763.89
1390.8,555.704
1392.7,406.79
1394.5,319.31
1396.4,257.058
1398.2,225.224
1400.1,195.632
1401.9,173.482
1403.8,155.096
1405.6,134.726
1407.4,126.408
1409.3,114.48
1411.1,96.4968
1413,75.8568
1414.8,61.8732
1416.6,56.334
1418.5,47.1238
1420.3,40.9096
1422.2,37.22
1424,31.6608
1425.8,24.7218
1427.7,23.9354
1429.5,22.9098
1431.3,21.08022
1433.2,11.17304
1435,11.538632
1436.8,10.98614
1438.7,11.7211
1440.5,7.15708
1442.3,2.89092
1444.1,4.51414
1446,5.73736
1447.8,2.6189
1449.6,4.65414
1451.4,3.084996
1453.3,-0.59468
1455.1,-3.02142
1456.9,1.673132
1458.7,-3.4608
1460.6,-0.8131526
1462.4,-0.986344
1464.2,-2.99222
1466,-6.54572
1467.8,0.138016
1469.6,-1.91546
1471.5,-4.379502
1473.3,-8.44746
1475.1,-7.27858
1476.9,1.3062418
1478.7,-5.18254
1480.5,-2.62558
1482.4,-1.67998
1484.2,-3.36088
1486,-4.915452
1487.8,-6.96596
1489.6,-4.40032
1491.4,-5.8993
1493.2,-7.04478
1495,-6.60178
1496.8,-1.65954
1498.6,-1.11166
1500.4,-3.25291688
1502.2,-3.982502
1504,0.56989
1505.8,0.148606
1507.6,2.786288
1509.4,-0.41726
1511.2,3.155022
1513,0.6159
1514.8,-2.98276
1516.6,-0.575906
1518.4,2.598218
1520.2,-0.2364914
1522,6.037416
1523.8,1.3939
1525.6,2.016482
1527.4,2.718128
1529.2,4.776532
1531,1.6177
1532.8,5.59444
1534.6,2.2677
1536.4,1.16478
1538.2,-0.639926
1539.9,3.66237
1541.7,6.31908
1543.5,8.38196
1545.3,8.81108
1547.1,15.18626
1548.9,18.5302
1550.7,21.57146
1552.4,31.6994
1554.2,32.4298
1556,37.7268
1557.8,36.77
1559.6,27.8604
1561.3,31.9264
1563.1,37.7032
1564.9,38.045
1566.7,41.8648
1568.4,41.3482
1570.2,49.7216
1572,52.3844
1573.8,60.8598
1575.5,60.1128
1577.3,66.258
1579.1,67.4294
1580.9,75.885
1582.6,77.5038
1584.4,89.4492
1586.2,93.546
1587.9,94.0812
1589.7,101.8858
1591.5,110.5214
1593.2,115.782
1595,121.872
1596.8,126.874
1598.5,133.482
1600.3,142.95
1602,150.998
1603.8,157.81
1605.6,170.954
1607.3,177.756
1609.1,184.034
1610.8,192.07
1612.6,195.978
1614.4,201.054
1616.1,207.292
1617.9,219.29
1619.6,219.688
1621.4,227.006
1623.1,233.67
1624.9,241.41
1626.6,242.996
1628.4,251.04
1630.1,262.034
1631.9,259.888
1633.6,263.062
1635.4,265.904
1637.1,262.95
1638.9,269.236
1640.6,267.9
1642.4,265.08
1644.1,265.212
1645.8,268.872
1647.6,271.734
1649.3,263.446
1651.1,265.006
1652.8,263.798
1654.6,260.876
1656.3,257.798
1658,253.832
1659.8,249.312
1661.5,246.89
1663.2,242.852
1665,239.044
1666.7,231.406
1668.4,224.092
1670.2,221.714
1671.9,211.252
1673.6,212.898
1675.4,206.698
1677.1,200.454
1678.8,198.794
1680.5,189.83
1682.3,185.874
1684,180.188
1685.7,172.818
1687.5,169.222
1689.2,168.128
1690.9,166.3
1692.6,159.03
1694.3,158.388
1696.1,152.748
1697.8,146.35
1699.5,142.596
1701.2,138.116
1702.9,136.652
1704.7,132.29
1706.4,130.894
1708.1,128.018
1709.8,128.678
1711.5,127.752
1713.2,122.384
1714.9,118.494
1716.7,115.552
1718.4,110.7132
1720.1,108.3148
1721.8,102.218
1723.5,99.7122
1725.2,93.374
1726.9,92.5106
1728.6,85.9466
1730.3,85.3652
1732,82.7176
1733.7,73.7042
1735.4,76.533
1737.1,68.6976
1738.8,63.794
1740.6,61.6508
1742.3,53.493
1744,47.1728
1745.7,44.324
1747.3,38.1546
1749,35.2676
1750.7,33.6842
1752.4,31.623
1754.1,27.7478
1755.8,22.9052
1757.5,21.2376
1759.2,16.9835
1760.9,17.57312
1762.6,16.91152
1764.3,15.5159
1766,11.66434
1767.7,15.09762
1769.4,9.97518
1771.1,8.39414
1772.7,9.54946
1774.4,7.7328
1776.1,8.88328
1777.8,5.38518
1779.5,1.300932
1781.2,6.57724
1782.8,2.874952
1784.5,2.397732
1786.2,1.34758
1787.9,-6.980096
1789.6,1.29063
1791.2,-0.76568
1792.9,0.1092
1794.6,-0.142932
1796.3,0.186854
1798,-2.34258
1799.6,-1.03476
1801.3,-2.7776678
1803,-4.178666
1804.7,-5.81638
1806.3,-6.43178
1808,-2.786664
1809.7,-5.52622
1811.3,-3.65167
1813,-1.747038
1814.7,-3.29129
1816.3,-4.51014
1818,-4.30486
1819.7,-4.456188
1821.3,-2.318718
1823,-4.229774
1824.7,-4.26774
1826.3,-3.120786
1828,-7.07904
1829.7,-0.130178
1831.3,-1.921076
1833,1.86568
1834.6,-0.9256
1836.3,0.574176
1838,-0.061788
1839.6,-5.109724
1841.3,0.00273599999999996
1842.9,0.698656
1844.6,-2.30626
1846.2,-1.315392
1847.9,-3.478094
1849.5,0.92918
1851.2,0.10078
1852.8,-1.33127
1854.5,0.293394
1856.1,-1.0534
1857.8,1.5006502
1859.4,0.700758
1861.1,2.26036
1862.7,-0.824078
1864.4,-0.834588
1866,-0.26666
1867.7,-1.461598
1869.3,1.287958
1871,-0.623732
1872.6,2.34568
1874.2,3.540102
1875.9,-0.51398
1877.5,-0.646244
1879.2,0
1880.8,-1.09984
1882.4,-4.58125
1884.1,1.86196
1885.7,0.0468679999999999
1887.3,-3.416198
1889,-4.882094
1890.6,-2.013506
1892.2,-4.25504
1893.9,1.27924
1895.5,-8.931434
1897.1,1.46102
1898.8,1.267
1900.4,-2.0575
1902,-4.5052808
1903.7,-3.09748
1905.3,-3.601794
1906.9,-0.4552
1908.5,-2.35344
1910.2,-3.6119004
1911.8,-2.72252
1913.4,-2.471632
1915,0.21069
1916.7,-2.145118
1918.3,-3.0383
1919.9,0.510614
1921.5,-1.3560768
1923.1,-0.64908
1924.8,-0.14582
1926.4,-0.629804
1928,4.45852
1929.6,-1.151066
1931.2,2.4759832
1932.8,-1.1106
1934.4,-1.59646
1936.1,-0.76655
1937.7,-0.523658
1939.3,-1.38842
1940.9,-0.53416
1942.5,-1.143
1944.1,-1.66614
1945.7,-3.00842
1947.3,2.55496
1948.9,-1.124418
1950.5,-1.51424
1952.1,0.0689472
1953.8,-0.321084
1955.4,3.264226
1957,2.10944
1958.6,0.58452
1960.2,-0.307742
1961.8,2.13802
1963.4,-2.01356
1965,-2.211886
1966.6,2.41509
1968.2,4.26857
1969.8,1.65818
1971.4,0.42722
1973,2.90322
1974.5,0.76894
1976.1,1.343492
1977.7,-1.023568
1979.3,-1.18856
1980.9,-1.89232
1982.5,-0.9744
1984.1,-0.96112
1985.7,-0.186024
1987.3,2.486458
1988.9,-0.13408
1990.5,3.311862
1992,1.423462
1993.6,0.78534
1995.2,4.778662
1996.8,1.496198
1998.4,2.6088714
2000,-0.420186
2001.6,0.47438
2003.1,3.96254
2004.7,5.18838
2006.3,4.51244
2007.9,3.339774
2009.5,4.694176
2011,5.734154
2012.6,2.672974
2014.2,7.483876
2015.8,3.00861
2017.3,-1.0092032
2018.9,-0.460038
2020.5,2.44577
2022.1,4.072134
2023.6,5.63826
2025.2,1.292328
2026.8,4.6228
2028.3,2.43848
2029.9,4.268182
2031.5,-0.0347540000000001
2033,3.304064
2034.6,4.0823
2036.2,-0.0351720000000001
2037.7,8.6004
2039.3,4.26928
2040.9,2.232012
2042.4,6.18854
2044,2.230066
2045.6,1.40278
2047.1,1.084694
2048.7,1.8514
2050.2,-2.698674
2051.8,-0.24396
2053.4,3.46346
2054.9,4.32882
2056.5,-1.003514
2058,3.875848
2059.6,2.694718
2061.1,1.5183
2062.7,0.37616
2064.2,-0.54472
2065.8,3.89402
2067.3,-0.465418
2068.9,2.891492
2070.4,-1.5764264
2072,-1.384704
2073.5,0.703544
2075.1,0.95866
2076.6,2.747168
2078.2,-2.257642
2079.7,-0.8199
2081.3,0.45785
2082.8,3.42822
2084.4,0.425462
2085.9,-0.95742
2087.4,-0.468246
2089,0.99832
2090.5,0.38208
2092.1,6.8917
2093.6,4.7641
2095.1,5.69446
2096.7,5.04574
2098.2,2.82859
2099.7,7.46948
2101.3,3.777538
2102.8,7.42709
2104.3,3.386478
2105.9,5.35168
2107.4,5.65383
2108.9,6.67016
2110.5,4.137358
2112,2.382138
2113.5,4.88754
2115.1,6.9113
2116.6,4.95284
2118.1,4.511092
2119.6,6.427288
2121.2,6.03792
2122.7,5.447302
2124.2,6.71398
2125.7,6.11586
2127.3,7.4562
2128.8,6.77964
2130.3,14.61872
2131.8,16.018
2133.3,22.875
2134.9,32.6842
2136.4,48.3024
2137.9,61.4124
2139.4,83.9792
2140.9,92.729
2142.4,87.9024
2144,63.729
2145.5,37.4258
2147,26.4354
2148.5,18.5848
2150,13.1494
2151.5,9.74108
2153,4.64252
2154.5,5.64556
2156,4.82202
2157.6,3.20318
2159.1,5.28199
2160.6,0.70546
2162.1,1.466916
2163.6,-0.526274
2165.1,0.440444
2166.6,-0.569024
2168.1,2.56322
2169.6,-2.72694
2171.1,4.178454
2172.6,-0.57862
2174.1,2.2699
2175.6,2.7536608
2177.1,0.831704
2178.6,2.34445
2180.1,2.234436
2181.6,-0.211404
2183.1,-0.407765
2184.6,-4.171196
2186.1,-2.91228
2187.5,-2.986232
2189,0.509738
2190.5,-0.240218
2192,-3.006218
2193.5,0.70316
2195,1.230278
2196.5,-3.54728
2198,-0.68066
2199.5,-3.68526
2201,-2.33328
2202.4,-0.2335
2203.9,-3.83122
2205.4,-2.881148
2206.9,-2.42279
2208.4,-0.62552
2209.9,0.592046
2211.3,-2.2497562
2212.8,-2.53622
2214.3,-2.409548
2215.8,-5.370964
2217.3,-5.71172
2218.7,-4.009952
2220.2,-3.11495
2221.7,-4.3871
2223.2,-6.39438
2224.6,-6.63612
2226.1,-8.85674
2227.6,-8.28752
2229.1,-7.41544
2230.5,-6.99452
2232,-5.3422
2233.5,-3.09198
2234.9,-6.0564
2236.4,-8.10572
2237.9,-8.03066
2239.3,-2.50704
2240.8,-5.14776
2242.3,-4.189148
2243.7,-5.01222
2245.2,-3.65426
2246.7,-5.72172
2248.1,-8.49414
2249.6,-6.48346
2251.1,-3.64616
2252.5,-6.63898
2254,-5.854394
2255.4,-4.32846
2256.9,-6.0495
2258.3,-5.136282
2259.8,-3.6798
2261.3,-9.63042
2262.7,-4.54532
2264.2,-3.60134
2265.6,-2.560502
2267.1,-4.170256
2268.5,-5.45948
2270,-2.819292
2271.4,-8.8504
2272.9,-3.0851844
2274.3,0
2275.8,-5.94064
2277.2,-4.9609528
2278.7,-5.366418
2280.1,-5.4539472
2281.6,-2.8711552
2283,-3.82582
2284.5,-3.86104
2285.9,-7.39354
2287.4,-5.31464
2288.8,-1.960482
2290.2,-5.9414
2291.7,-4.54856
2293.1,-5.8185
2294.6,-3.89148
2296,-2.276638
2297.4,-0.398384
2298.9,-2.50282
2300.3,-4.39217
2301.7,-4.8911
2303.2,-4.380112
2304.6,-5.97416
2306,-4.1736
2307.5,-2.29812
2308.9,-4.248762
2310.3,-1.980334
2311.8,-1.98644
2313.2,-0.881262
2314.6,-1.48338
2316.1,-3.1121176
2317.5,-3.081362
2318.9,-4.220538
2320.3,-3.10892
2321.8,1.09369
2323.2,4.390198
2324.6,6.55602
2326,13.37292
2327.5,20.7926
2328.9,28.5924
2330.3,28.9872
2331.7,21.6156
2333.2,10.11724
2334.6,7.92478
2336,3.192784
2337.4,4.47978
2338.8,-0.2724172
2340.2,1.80486
2341.7,0.21366
2343.1,3.428056
2344.5,1.133362
2345.9,1.55272
2347.3,-2.606374
2348.7,2.644
2350.1,-1.192432
2351.6,3.56006
2353,0.79378
2354.4,3.06354
2355.8,0.54564
2357.2,1.787594
2358.6,-1.41132
2360,5.132132
2361.4,3.830938
2362.8,6.066866
2364.2,2.11122
2365.6,2.1258
2367,4.76763
2368.4,4.71938
2369.8,3.106
2371.2,7.35762
2372.6,5.88794
2374,5.06124
2375.4,3.422
2376.8,4.998736
2378.2,4.538728
2379.6,7.105012
2381,3.7542
2382.4,2.52376
2383.8,8.59578
2385.2,4.851524
2386.6,4.38458
2388,1.54286
2389.4,3.42435
2390.8,3.034476
2392.1,4.80442
2393.5,4.60878
2394.9,4.463486
2396.3,1.89456
2397.7,5.20054
2399.1,6.501274
2400.5,6.737188
2401.9,5.6053
2403.2,3.2659
2404.6,2.86673
2406,2.377752
2407.4,8.41932
2408.8,2.735552
2410.2,6.171284
2411.5,1.66332
2412.9,0.09796
2414.3,3.426656
2415.7,0
2417,4.417904
2418.4,2.406092
2419.8,2.08328
2421.2,4.85302
2422.5,-0.0877212
2423.9,2.9237
2425.3,3.95768
2426.7,2.500966
2428,2.50278
2429.4,4.25044
2430.8,2.5828
2432.1,5.779986
2433.5,4.77796
2434.9,2.607722
2436.2,1.52968
2437.6,4.17064
2439,5.08444
2440.3,3.3767
2441.7,2.680992
2443.1,2.237828
2444.4,2.343656
2445.8,2.666858
2447.2,4.648588
2448.5,4.97262
2449.9,4.9283
2451.2,5.155904
2452.6,2.104244
2454,2.71138
2455.3,-1.0779
2456.7,3.883
2458,4.00573
2459.4,1.067746
2460.7,2.561052
2462.1,3.7639802
2463.4,2.46682
2464.8,2.416508
2466.1,3.93182
2467.5,3.68434
2468.8,2.3074
2470.2,0.844152
2471.5,3.0259
2472.9,3.192318
2474.2,3.4950014
2475.6,5.07346
2476.9,3.652756
2478.3,2.889534
2479.6,2.38274
2481,3.785054
2482.3,0.71265
2483.6,-1.74117
2485,2.281605
2486.3,1.71644
2487.7,2.19898
2489,6.83425
2490.3,2.22334
2491.7,5.05712
2493,4.238604
2494.4,3.154914
2495.7,1.969894
2497,-0.963566
2498.4,3.2448302
2499.7,1.120828
2501,2.5019
2502.4,3.2974
2503.7,2.57874
2505,4.60252
2506.4,0.779356
2507.7,-0.0426799999999999
2509,1.90294
2510.3,2.355472
2511.7,-0.424418
2513,4.50024
2514.3,2.15843
2515.6,2.050896
2517,2.15478
2518.3,0.996908
2519.6,1.53158
2520.9,0
2522.3,3.29871
2523.6,0.69982
2524.9,0.6550632
2526.2,0.35314
2527.5,0.96042
2528.9,3.399332
2530.2,1.16055
2531.5,2.841786
2532.8,-1.9004414
2534.1,1.443616
2535.4,-2.490218
2536.8,2.480202
2538.1,-1.08998
2539.4,2.09704
2540.7,1.42527
2542,0.550716
2543.3,1.96023
2544.6,0.71286
2545.9,-0.252066
2547.2,-0.5083392
2548.6,2.289434
2549.9,2.02728
2551.2,0.732734
2552.5,0.50215
2553.8,1.837702
2555.1,3.39376
2556.4,1.498882
2557.7,-2.08618
2559,2.27202
2560.3,3.253596
2561.6,0.504768
2562.9,5.4755124
2564.2,1.247802
2565.5,1.658048
2566.8,4.20316
2568.1,1.058656
2569.4,0.0568319999999999
2570.7,2.036504
2572,4.226154
2573.3,5.579794
2574.6,0.615638
2575.9,1.78857
2577.1,1.8991
2578.4,0.8372
2579.7,-0.1637
2581,3.085088
2582.3,-1.52594
2583.6,2.201576
2584.9,1.5786
2586.2,-0.1944
2587.5,-0.970854
2588.7,0.32754
2590,1.3044574
2591.3,-1.924112
2592.6,1.38216
2593.9,-3.0818
2595.2,-3.65806
2596.4,-1.48807
2597.7,-0.89928
2599,-0.45084
2600.3,0.56156
2601.6,1.10794
2602.8,-0.146548
2604.1,5.1502
2605.4,0.5506
2606.7,-0.8891144
2608,-1.534342
2609.2,-1.3703678
2610.5,-1.185
2611.8,-1.84184
2613,1.026594
2614.3,0.71434
2615.6,0.78298
2616.9,-1.297872
2618.1,0.17782
2619.4,-2.60874
2620.7,-2.931516
2621.9,0.61682
2623.2,-1.068112
2624.5,-0.49948
2625.7,-3.5586444
2627,-2.595414
2628.3,-0.257112
2629.5,0
2630.8,2.9088934
2632.1,0.82054
2633.3,1.7842
2634.6,0.96416
2635.8,-1.470736
2637.1,-2.43838
2638.4,-1.27774
2639.6,0.255106
2640.9,-0.99666
2642.1,-2.82178
2643.4,-2.038744
2644.6,-1.899018
2645.9,2.30176
2647.2,-3.052106
2648.4,-0.32268
2649.7,-0.617206
2650.9,-1.15796
2652.2,-3.278026
2653.4,-1.95766
2654.7,-1.00059
2655.9,-0.92108
2657.2,-1.01128
2658.4,1.196838
2659.7,-1.89686
2660.9,0.387212
2662.2,0.328
2663.4,-4.538958
2664.6,-1.559892
2665.9,-2.553398
2667.1,-2.128596
2668.4,-2.392838
2669.6,-0.332322
2670.9,-4.84692
2672.1,1.90825
2673.3,-2.0052
2674.6,0.8397374
2675.8,-0.981106
2677.1,0.548532
2678.3,1.069622
2679.5,-1.26602
2680.8,-1.67794
2682,-0.104646
2683.2,-0.92854
2684.5,1.09072
2685.7,2.264218
2686.9,-0.75992
2688.2,1.689792
2689.4,0.94096
2690.6,-1.570076
2691.9,-2.945644
2693.1,2.410804
2694.3,2.675956
2695.5,0.13254
2696.8,-1.496162
2698,-1.699848
2699.2,1.461468
2700.4,-0.24464
2701.7,3.105422
2702.9,0.299287
2704.1,-0.20798
2705.3,1.56877
2706.6,1.009638
2707.8,-1.674016
2709,0.472354
2710.2,-0.223708
2711.4,2.612226
2712.6,0.88298
2713.9,-0.0891
2715.1,0.20644
2716.3,-0.771488
2717.5,0.57254
2718.7,-0.94944
2719.9,4.3678
2721.2,-1.266358
2722.4,-0.28666
2723.6,1.3223
2724.8,-0.218058
2726,0
2727.2,-1.529782
2728.4,1.19722
2729.6,-1.39597
2730.8,-1.5444
2732,-0.3995
2733.3,-0.669956
2734.5,2.023602
2735.7,3.213302
2736.9,-1.160256
2738.1,3.80388
2739.3,-0.493088
2740.5,1.771354
2741.7,-2.37445
2742.9,-0.4575452
2744.1,2.34798
2745.3,1.32668
2746.5,1.263976
2747.7,-0.157958
2748.9,-0.17008
2750.1,1.1983
2751.3,-0.196154
2752.5,-1.232648
2753.7,-1.077164
2754.9,-0.62458
2756,3.931664
2757.2,-3.42748
2758.4,0.71598
2759.6,-0.636192
2760.8,0.59452
2762,3.268478
2763.2,0.3675
2764.4,4.14628
2765.6,-0.992656
2766.8,-1.896126
2767.9,-3.4168564
2769.1,-2.92847
2770.3,-0.46568
2771.5,-2.42108
2772.7,1.079832
2773.9,3.19874
2775.1,1.00744
2776.2,-0.197778
2777.4,1.05253
2778.6,2.5692
2779.8,0.41672
2781,-0.4629206
2782.1,-0.70346
2783.3,1.915278
2784.5,1.394132
2785.7,2.55736
2786.8,1.05582
2788,-0.59902
2789.2,-1.42832
2790.4,0.801674
2791.5,-2.505642
2792.7,-1.29184
2793.9,2.44968
2795.1,1.772702
2796.2,-2.76699
2797.4,-2.380854
2798.6,-0.29908
2799.7,4.42648
2800.9,-0.32304
2802.1,-0.331142
2803.2,0.436408
2804.4,1.7416112
2805.6,-1.111468
2806.7,-0.1912404
2807.9,-2.9299386
2809.1,1.916056
2810.2,0.394682
2811.4,-1.291832
2812.6,-3.2643
2813.7,-0.275746
2814.9,0.6424282
2816,1.5798216
2817.2,3.391118
2818.4,0
2819.5,-0.33998
2820.7,0.888722
2821.8,0.73554
2823,3.93422
2824.1,-0.0431560000000001
2825.3,0.84362
2826.4,0.1633046
2827.6,1.730806
2828.7,1.09668
2829.9,0.549401
2831,2.34758
2832.2,2.03568
2833.3,0.59821
2834.5,-3.38127
2835.6,0.662498
2836.8,3.33704
2837.9,-3.260442
2839.1,1.554302
2840.2,1.378302
2841.4,-0.0242698000000001
2842.5,3.323628
2843.7,2.720228
2844.8,0.83187
2845.9,1.587192
2847.1,-0.3259034
2848.2,0.10019
2849.4,0.36618
2850.5,2.361282
2851.7,-1.652124
2852.8,-1.3122018
2853.9,0.74154
2855.1,-2.10022
2856.2,-0.60334
2857.3,-2.13506
2858.5,-4.53362
2859.6,-0.07218
2860.7,-2.72731
2861.9,-2.466734
2863,-1.751772
2864.1,-3.595522
2865.3,-5.05168
2866.4,-6.03873
2867.5,0.45237
2868.7,1.021
2869.8,-0.892866
2870.9,-3.259504
2872,-5.00374
2873.2,-0.685414
2874.3,-2.13481
2875.4,-2.96858
2876.5,-1.56212
2877.7,-0.35376
2878.8,-1.275324
2879.9,-0.13254
2881,0.1248
2882.2,-0.3791
2883.3,-3.320722
2884.4,-3.63452
2885.5,-0.106032
2886.6,1.87216
2887.8,-3.86682
2888.9,-5.48058
2890,1.400856
2891.1,-0.49504
2892.2,-3.105044
2893.3,-1.99
2894.4,-0.0154600000000002
2895.6,-0.367452
2896.7,1.204434
2897.8,1.02394
2898.9,1.01962
2900,1.21778
2901.1,-2.162762
2902.2,1.850928
2903.3,4.167062
2904.4,-2.087564
2905.6,2.818704
2906.7,4.12047
2907.8,-0.71058
2908.9,1.6375
2910,4.28028
2911.1,3.562092
2912.2,4.40768
2913.3,3.6428526
2914.4,5.08142
2915.5,3.48416
2916.6,1.73306
2917.7,3.20722
2918.8,3.38954
2919.9,6.506061
2921,6.99218
2922.1,5.53946
2923.2,5.94906
2924.3,6.35374
2925.4,9.734996
2926.5,13.64634
2927.6,8.26102
2928.7,6.180326
2929.8,12.12804
2930.8,10.20134
2931.9,9.99254
2933,10.60132
2934.1,12.58988
2935.2,11.30064
2936.3,11.2767
2937.4,7.81331
2938.5,11.88532
2939.6,10.22376
2940.6,12.74944
2941.7,10.90296
2942.8,12.75964
2943.9,13.02438
2945,12.6336
2946.1,14.73778
2947.2,17.3562
2948.2,15.2646
2949.3,14.95348
2950.4,14.41544
2951.5,13.91378
2952.6,14.4479762
2953.6,12.37548
2954.7,13.8784
2955.8,14.681
2956.9,12.99912
2957.9,13.94642
2959,13.2138
2960.1,13.38074
2961.2,10.93792
2962.2,12.397078
2963.3,13.83988
2964.4,8.7083298
2965.5,9.55646
2966.5,8.76022
2967.6,10.80966
2968.7,7.101048
2969.7,12.90334
2970.8,11.89348
2971.9,15.07704
2973,12.75168
2974,14.74566
2975.1,15.71232
2976.2,14.98542
2977.2,15.17762
2978.3,12.87438
2979.3,18.30798
2980.4,15.9697
2981.5,13.1062
2982.5,13.26404
2983.6,17.4606
2984.7,15.52844
2985.7,15.55658
2986.8,14.74912
2987.8,14.62388
2988.9,18.4016
2989.9,16.82828
2991,18.70422
2992.1,18.51806
2993.1,22.0496
2994.2,19.6213
2995.2,21.29404
2996.3,20.38
2997.3,22.1264
2998.4,20.30356
2999.4,22.607
3000.5,25.0612
3001.5,26.872
3002.6,27.9422
3003.6,24.5666
3004.7,24.8186
3005.7,26.6626
3006.8,25.1326
3007.8,26.08
3008.9,29.402
3009.9,27.7192
3011,31.5428
3012,28.7518
3013,34.6214
3014.1,33.1794
3015.1,33.5346
3016.2,35.1516
3017.2,35.472
3018.2,34.2798
3019.3,35.5156
3020.3,39.431
3021.4,38.7034
3022.4,38.7552
3023.4,39.3506
3024.5,42.2736
3025.5,40.6872
3026.5,45.7744
3027.6,45.1276
3028.6,41.822
3029.6,44.0662
3030.7,45.5436
3031.7,47.2172
3032.7,51.9314
3033.8,52.5992
3034.8,50.8068
3035.8,52.7362
3036.9,55.227
3037.9,52.3746
3038.9,55.0444
3039.9,55.7868
3041,59.1278
3042,59.0674
3043,61.199
3044,56.8236
3045.1,60.4948
3046.1,60.5144
3047.1,63.5972
3048.1,64.868
3049.2,66.2448
3050.2,68.2606
3051.2,65.6536
3052.2,71.461
3053.2,71.8946
3054.3,70.058
3055.3,71.0952
3056.3,70.36
3057.3,72.271
3058.3,75.9606
3059.3,73.1724
3060.3,79.9026
3061.4,79.2638
3062.4,81.6218
3063.4,83.8498
3064.4,79.3418
3065.4,84.8356
3066.4,87.8904
3067.4,88.0164
3068.4,88.5422
3069.5,89.5414
3070.5,89.81
3071.5,90.8672
3072.5,92.9208
3073.5,92.0718
3074.5,96.82
3075.5,98.7074
3076.5,96.2606
3077.5,99.941
3078.5,99.4424
3079.5,103.4166
3080.5,102.3812
3081.5,106.089
3082.5,107.1946
3083.5,108.2304
3084.5,109.638
3085.5,112.164
3086.5,112.626
3087.5,115.524
3088.5,112.566
3089.5,115.3016
3090.5,116.824
3091.5,123.176
3092.5,120.4
3093.5,122.316
3094.5,122.044
3095.5,127.014
3096.4,125.338
3097.4,127.348
3098.4,128.01
3099.4,133.892
3100.4,136.298
3101.4,137.892
3102.4,141.864
3103.4,136.248
3104.4,136.938
3105.3,146.116
3106.3,145.32
3107.3,148.266
3108.3,149.11
3109.3,146.992
3110.3,149.308
3111.3,154.12
3112.2,151.388
3113.2,162.128
3114.2,157.576
3115.2,159.352
3116.2,163.294
3117.1,165.072
3118.1,164.972
3119.1,167.418
3120.1,169.132
3121,170.9
3122,171.102
3123,175.256
3124,179.674
3124.9,176.95
3125.9,177.624
3126.9,184.704
3127.9,186.074
3128.8,184.452
3129.8,185.6
3130.8,189.602
3131.7,183.79
3132.7,193.282
3133.7,191.854
3134.7,192.202
3135.6,193.842
3136.6,198.262
3137.6,199.176
3138.5,197.798
3139.5,199.47
3140.4,201.5
3141.4,205.284
3142.4,204.68
3143.3,206.41
3144.3,209.932
3145.3,211.258
3146.2,205.878
3147.2,213.02
3148.1,216.292
3149.1,214.942
3150.1,214.412
3151,216.824
3152,216.846
3152.9,220.408
3153.9,219.686
3154.8,222.102
3155.8,219.936
3156.7,222.486
3157.7,223.938
3158.6,229.916
3159.6,228.784
3160.6,232.658
3161.5,230.97
3162.5,230.172
3163.4,231.214
3164.4,230.476
3165.3,233.46
3166.2,234.356
3167.2,233.568
3168.1,238.818
3169.1,231.658
3170,237.432
3171,234.926
3171.9,236.674
3172.9,235.494
3173.8,238.92
3174.7,237.558
3175.7,235.442
3176.6,239.584
3177.6,236.992
3178.5,238.532
3179.5,241.764
3180.4,243.464
3181.3,239.412
3182.3,241.85
3183.2,241.59
3184.1,239.804
3185.1,240.678
3186,243.46
3186.9,246.848
3187.9,246.278
3188.8,244.752
3189.7,239.004
3190.7,245.064
3191.6,241.338
3192.5,242.372
3193.5,243.42
3194.4,245.556
3195.3,242.914
3196.3,236.466
3197.2,240.818
3198.1,241.072
3199,238.5
3200,238.542
3200.9,236.932
3201.8,241.114
3202.7,237.602
3203.7,235.454
3204.6,233.862
3205.5,231.842
3206.4,228.474
3207.3,235.098
3208.3,228.682
3209.2,227.158
3210.1,228.774
3211,228.164
3211.9,224.924
3212.9,221.04
3213.8,219.65
3214.7,219.326
3215.6,219.59
3216.5,217.156
3217.4,215.65
3218.4,214.428
3219.3,208.344
3220.2,208.706
3221.1,206.982
3222,201.632
3222.9,196.786
3223.8,197.92
3224.7,196.944
3225.6,193.658
3226.6,194.974
3227.5,189.066
3228.4,188.774
3229.3,180.046
3230.2,181.562
3231.1,176.49
3232,175.1
3232.9,170.842
3233.8,171.642
3234.7,167.162
3235.6,164.334
3236.5,160.288
3237.4,156.382
3238.3,153.632
3239.2,149.498
3240.1,145.354
3241,144.864
3241.9,137.418
3242.8,134.636
3243.7,123.496
3244.6,128.538
3245.5,120.644
3246.4,110.336
3247.3,105.582
3248.2,102.3594
3249.1,86.6884
3250,80.0998
3250.9,73.404
3251.8,65.063
3252.7,53.4242
3253.5,42.6404
3254.4,26.4122
3255.3,12.5884
3256.2,-8.70868
