250.34,-0.108799999999999
252.57,-2.29726
254.8,0
257.03,3.90748
259.26,0.9739
261.48,2.52424
263.71,11.32954
265.94,-1.008782
268.16,0.13672
270.39,3.7928
272.61,5.78268
274.84,0.082614
277.06,-0.1238062
279.28,2.670738
281.51,0.644294
283.73,1.37518
285.95,2.983954
288.17,1.319396
290.39,1.294038
292.61,5.00174
294.83,-4.04666
297.05,-2.81726
299.27,3.548782
301.48,7.01968
303.7,3.589742
305.91,5.7928
308.13,5.564872
310.35,5.03268
312.56,4.49358
314.77,6.23672
316.99,-0.696172
319.2,3.901
321.41,6.674704
323.62,3.95856
325.83,-0.0804426
328.04,5.421178
330.25,1.27718
332.46,1.63566
334.67,7.79522
336.88,6.055
339.08,8.9257
341.29,17.5222
343.5,24.9102
345.7,52.2022
347.91,95.1348
350.11,215.764
352.31,394.994
354.52,523.65
356.72,479.66
358.92,327.326
361.12,189.606
363.32,110.3686
365.52,67.071
367.72,51.9632
369.92,36.1662
372.12,32.7276
374.32,51.7316
376.51,89.0452
378.71,106.2184
380.9,90.5152
383.1,56.2382
385.29,26.4382
387.49,20.0872
389.68,7.02582
391.87,6.5853
394.07,-4.2252
396.26,3.64796
398.45,2.36526
400.64,14.6929
402.83,15.55076
405.02,14.89006
407.21,28.5486
409.39,61.3122
411.58,137.69
413.77,369.71
415.95,642.886
418.14,700
420.32,474.442
422.51,243.098
424.69,129.16
426.87,86.9646
429.06,87.0908
431.24,74.8998
433.42,58.3044
435.6,28.8976
437.78,13.00618
439.96,1.280348
442.14,-0.0228034
444.31,10.70766
446.49,30.539
448.67,37.6322
450.84,34.279
453.02,12.12204
455.19,0.0871400000000001
457.37,-4.07111
459.54,-7.084608
461.71,-6.89252
463.89,-8.38944
466.06,-10.26804
468.23,-9.15728
470.4,-13.84162
472.57,-19.6778
474.74,-11.86004
476.91,-11.91094
479.07,-14.24414
481.24,-4.03396
483.41,-2.0312
485.57,2.786952
487.74,-3.14106
489.9,-1.24451
492.07,-0.214726
494.23,0.123434
496.4,-7.804
498.56,-11.27344
500.72,-15.4503
502.88,-22.0498
505.04,-17.8881
507.2,-14.07374
509.36,-13.85898
511.52,-14.78172
513.68,-10.19034
515.83,-11.62222
517.99,-8.53514
520.14,-12.28136
522.3,-13.12362
524.45,-7.571676
526.61,-11.42388
528.76,-5.839206
530.91,-4.71852
533.07,-1.829402
535.22,-0.596654
537.37,2.761902
539.52,3.47892
541.67,8.39834
543.82,2.68442
545.97,1.4977
548.11,8.87794
550.26,-1.259104
552.41,0.37226
554.55,-1.04758
556.7,3.91832
558.84,1.7912
560.98,9.06096
563.13,10.6356
565.27,14.54974
567.41,18.8424
569.55,37.5922
571.69,72.7316
573.83,133.91
575.97,197.422
578.11,258.074
580.25,339.488
582.39,576.5
584.52,1024.528
586.66,1392.46
588.79,1357.94
590.93,978.648
593.06,571.906
595.19,311.762
597.33,173.538
599.46,103.563
601.59,58.6174
603.72,28.5994
605.85,18.11172
607.98,0.0139592
610.11,0.5266
612.24,-3.18106
614.36,-4.1933
616.49,-1.78747
618.62,-1.57244
620.74,-2.555848
622.87,0.80332
624.99,0.462772
627.11,-2.84682
629.24,-1.028852
631.36,-7.13208
633.48,-3.1146104
635.6,-4.446552
637.72,-2.37215
639.84,-0.59296
641.96,0.1029798
644.08,-5.3386
646.2,-1.40311
648.31,-7.545548
650.43,-15.2674
652.54,-10.66202
654.66,-13.45028
656.77,-15.9524
658.89,-14.80114
661,-20.4624
663.11,-15.44812
665.22,-19.8828
667.33,-20.3164
669.44,-28.4664
671.55,-22.2894
673.66,-26.464
675.77,-31.5036
677.88,-32.0922
679.98,-29.9256
682.09,-29.3598
684.2,-26.425
686.3,-28.5676
688.4,-30.5212
690.51,-22.1278
692.61,-23.0812
694.71,-24.4678
696.81,-25.5176
698.92,-24.1968
701.02,-23.8928
703.11,-18.1398
705.21,-20.271
707.31,-14.472
709.41,-12.20652
711.51,-11.028
713.6,-10.88188
715.7,-11.66246
717.79,-10.06368
719.89,-10.53604
721.98,-6.84362
724.07,-8.84634
726.16,-7.65976
728.25,-6.82424
730.35,-3.257084
732.44,9.47846
734.52,21.6152
736.61,34.5254
738.7,53.612
740.79,80.058
742.87,112.862
744.96,162.042
747.05,210.004
749.13,243.744
751.21,241.61
753.3,213.582
755.38,164.824
757.46,120.396
759.54,82.9966
761.62,53.1068
763.7,32.9008
765.78,22.4936
767.86,14.2286
769.94,7.89298
772.01,-1.321682
774.09,-0.10082
776.17,0.30031
778.24,-5.95268
780.32,-0.334594000000001
782.39,-1.510524
784.46,-2.76536
786.53,2.514836
788.61,2.77954
790.68,3.31474
792.75,3.512502
794.82,6.57898
796.89,7.81618
798.95,8.12232
801.02,6.02604
803.09,7.36448
805.15,17.2742
807.22,26.7516
809.28,70.39
811.35,154.19
813.41,244.488
815.47,256.452
817.53,175.992
819.6,89.538
821.66,45.303
823.72,19.9194
825.78,6.61592
827.83,5.4241
829.89,-0.86566
831.95,4.681296
834,-0.3292
836.06,0.00476400000000009
838.12,2.14038
840.17,0.305196
842.22,-1.48774
844.28,0.719768
846.33,3.582762
848.38,0.154524
850.43,2.7815
852.48,-1.060716
854.53,-1.903116
856.58,1.111426
858.63,-0.82354
860.67,5.84012
862.72,1.74598
864.77,3.547298
866.81,3.748442
868.86,-0.1767874
870.9,-0.469842
872.94,-0.81605
874.98,0.2206026
877.03,-4.119162
879.07,3.514308
881.11,-6.41222
883.15,0.885656
885.19,-0.93195
887.22,1.14866
889.26,4.315366
891.3,-0.44436
893.33,-0.61222
895.37,1.566404
897.4,-1.89742
899.44,0
901.47,3.17714
903.5,-0.0493939999999999
905.54,4.407178
907.57,4.38954
909.6,4.45714
911.63,-0.0832800000000001
913.66,3.097646
915.68,3.8438
917.71,2.49848
919.74,-1.339477
921.76,1.77807
923.79,-6.28636
925.82,-1.189183
927.84,5.02312
929.86,5.96862
931.89,3.7167076
933.91,5.21178
935.93,5.77918
937.95,4.765556
939.97,-1.16783
941.99,4.34262
944.01,3.500942
946.02,0.925306
948.04,5.229596
950.06,1.518902
952.07,0.12924
954.09,0.5127
956.1,4.051198
958.12,1.36212
960.13,4.00452
962.14,2.64052
964.15,-0.20626
966.16,2.05937
968.17,-2.2727
970.18,0.22274
972.19,0.0170999999999999
974.2,1.82312
976.2,-0.378052
978.21,2.44852
980.22,5.621992
982.22,-0.232522
984.22,7.023394
986.23,9.8941
988.23,4.29336
990.23,4.27734
992.23,8.34782
994.24,5.10718
996.23,7.19498
998.23,8.408
1000.2,8.271658
1002.2,9.01982
1004.2,11.33546
1006.2,9.60964
1008.2,15.30716
1010.2,11.24506
1012.2,13.5838
1014.2,13.0335
1016.2,14.92184
1018.2,15.60464
1020.2,17.6022
1022.2,18.8912
1024.2,23.2698
1026.1,29.9036
1028.1,38.8298
1030.1,78.895
1032.1,153.092
1034.1,212.558
1036.1,198.874
1038.1,125.328
1040.1,70.1902
1042,40.9142
1044,28.7592
1046,21.3548
1048,22.4312
1050,21.0534
1051.9,19.57938
1053.9,19.918
1055.9,17.8754
1057.9,12.69362
1059.9,11.71016
1061.8,10.39337
1063.8,7.251978
1065.8,9.95068
1067.8,10.16582
1069.7,4.1325406
1071.7,7.58274
1073.7,8.41844
1075.6,9.17764
1077.6,5.11476
1079.6,7.54556
1081.5,8.88394
1083.5,5.3037
1085.5,1.492
1087.5,1.4285368
1089.4,1.38106
1091.4,-1.23984
1093.3,-1.5911452
1095.3,3.076772
1097.3,-0.439676
1099.2,4.73934
1101.2,3.37182
1103.2,4.642582
1105.1,1.67142
1107.1,-7.76006
1109,-2.453712
1111,-2.97094
1113,-0.000616000000000039
1114.9,0.00244399999999985
1116.9,-1.94862
1118.8,-9.55974
1120.8,3.307372
1122.7,2.65504
1124.7,4.414144
1126.6,3.18254
1128.6,3.58812
1130.5,1.27104
1132.5,1.78728
1134.4,1.55882
1136.4,0.616798
1138.3,8.6295
1140.3,4.037874
1142.2,7.80964
1144.2,8.94344
1146.1,11.25114
1148.1,5.19306
1150,10.52446
1151.9,8.99758
1153.9,7.87738
1155.8,6.70002
1157.8,7.35412
1159.7,10.64584
1161.6,7.087358
1163.6,11.90462
1165.5,13.71098
1167.5,11.85488
1169.4,13.21914
1171.3,13.74096
1173.3,10.63002
1175.2,12.09722
1177.1,15.51162
1179.1,12.84356
1181,10.20176
1182.9,14.00222
1184.9,13.3344
1186.8,17.3718
1188.7,10.7914
1190.6,13.23376
1192.6,16.9502
1194.5,18.3256
1196.4,18.7798
1198.4,13.48828
1200.3,21.1456
1202.2,19.9706
1204.1,16.9092
1206,18.6468
1208,18.6204
1209.9,22.4018
1211.8,20.6292
1213.7,23.9916
1215.6,26.3508
1217.6,24.7212
1219.5,25.2708
1221.4,23.3592
1223.3,24.9394
1225.2,23.8874
1227.1,26.0824
1229.1,24.782
1231,29.474
1232.9,32.1504
1234.8,33.9792
1236.7,34.9032
1238.6,37.8598
1240.5,41.18
1242.4,47.397
1244.3,56.0464
1246.2,60.747
1248.1,57.0608
1250.1,59.818
1252,65.1916
1253.9,70.1492
1255.8,77.547
1257.7,86.5408
1259.6,100.708
1261.5,111.38
1263.4,131.202
1265.3,143.736
1267.2,160.262
1269.1,175.142
1271,196.042
1272.9,206.21
1274.8,217.788
1276.6,221.696
1278.5,216.7
1280.4,222.67
1282.3,259.38
1284.2,276.422
1286.1,254.732
1288,193.12
1289.9,145.046
1291.8,114.528
1293.7,94.6562
1295.6,85.0942
1297.4,81.585
1299.3,76.5804
1301.2,70.8524
1303.1,70.909
1305,67.2156
1306.9,65.3152
1308.7,64.921
1310.6,60.999
1312.5,60.9626
1314.4,59.5258
1316.3,55.2192
1318.1,55.8052
1320,56.3534
1321.9,52.5976
1323.8,53.2036
1325.7,56.1272
1327.5,57.5864
1329.4,55.1316
1331.3,56.863
1333.1,53.6612
1335,59.1522
1336.9,56.6218
1338.8,55.3164
1340.6,58.2852
1342.5,58.2854
1344.4,62.2148
1346.2,65.862
1348.1,69.5376
1350,76.6712
1351.8,73.7398
1353.7,80.8472
1355.6,82.7286
1357.4,88.7294
1359.3,94.7544
1361.1,98.9508
1363,111.944
1364.9,124.92
1366.7,140.974
1368.6,167.022
1370.4,194.744
1372.3,234.602
1374.2,292.342
1376,365.708
1377.9,474.776
1379.7,588.414
1381.6,670.218
1383.4,725.632
1385.3,744.506
1387.1,708.118
1389,593.544
1390.8,433.988
1392.7,303.906
1394.5,231.226
1396.4,179.72
1398.2,151.734
1400.1,124.746
1401.9,107.22
1403.8,98.384
1405.6,88.5986
1407.4,82.8886
1409.3,77.3248
1411.1,65.7622
1413,48.9402
1414.8,44.4754
1416.6,39.8088
1418.5,35.1184
1420.3,29.8564
1422.2,29.388
1424,24.7042
1425.8,17.976
1427.7,17.8286
1429.5,14.9934
1431.3,10.32674
1433.2,10.92596
1435,4.253072
1436.8,6.62456
1438.7,6.97017
1440.5,6.8831
1442.3,0.706568
1444.1,2.961252
1446,7.56458
1447.8,4.0200338
1449.6,1.67419
1451.4,-0.781771
1453.3,-1.999896
1455.1,1.192982
1456.9,-0.662134
1458.7,-0.27762
1460.6,-0.0243119999999999
1462.4,-2.267576
1464.2,-1.89076
1466,-5.79698
1467.8,-4.232152
1469.6,-0.99334
1471.5,0.561208
1473.3,-4.9137022
1475.1,-5.972254
1476.9,-6.398258
1478.7,-1.4049458
1480.5,-4.04136
1482.4,-5.06872
1484.2,-4.071314
1486,-1.56243
1487.8,-4.988382
1489.6,-6.386
1491.4,-2.77976
1493.2,-2.59506
1495,-4.011716
1496.8,-1.18614
1498.6,-1.55444
1500.4,-2.427492
1502.2,-4.12852
1504,-4.08138
1505.8,1.77706
1507.6,2.5803
1509.4,1.75222
1511.2,-3.1835
1513,0.59956
1514.8,-1.23692
1516.6,-2.75681
1518.4,-0.734446
1520.2,-1.82662
1522,-3.608214
1523.8,-4.227512
1525.6,-5.192172
1527.4,-5.132324
1529.2,-3.0394
1531,-2.624488
1532.8,-2.503508
1534.6,-3.52792
1536.4,-2.710624
1538.2,1.499596
1539.9,-2.89915
1541.7,2.15584
1543.5,5.21664
1545.3,2.711636
1547.1,7.2710194
1548.9,9.09108
1550.7,18.4436
1552.4,22.2886
1554.2,25.8636
1556,30.7158
1557.8,27.5214
1559.6,17.84316
1561.3,17.65222
1563.1,18.1038
1564.9,19.8928
1566.7,21.9104
1568.4,21.8722
1570.2,26.1632
1572,30.7682
1573.8,32.9366
1575.5,34.5508
1577.3,39.8214
1579.1,37.43
1580.9,43.9154
1582.6,49.4754
1584.4,56.5616
1586.2,61.8414
1587.9,64.8824
1589.7,64.1742
1591.5,71.265
1593.2,73.6474
1595,74.4216
1596.8,80.8402
1598.5,82.728
1600.3,92.208
1602,97.062
1603.8,98.1382
1605.6,108.482
1607.3,115.282
1609.1,117.772
1610.8,120.406
1612.6,120.064
1614.4,133.592
1616.1,136.57
1617.9,140.898
1619.6,139.852
1621.4,146.054
1623.1,148.78
1624.9,152.864
1626.6,159.014
1628.4,160.616
1630.1,168.566
1631.9,166.91
1633.6,171.414
1635.4,168.828
1637.1,170.97
1638.9,173.646
1640.6,172.65
1642.4,172.358
1644.1,171.91
1645.8,169.346
1647.6,172.934
1649.3,172.65
1651.1,173.86
1652.8,166.858
1654.6,166.194
1656.3,168.346
1658,157.852
1659.8,160.072
1661.5,153.992
1663.2,151.834
1665,149.808
1666.7,146.828
1668.4,141.992
1670.2,137.9
1671.9,139.688
1673.6,133.926
1675.4,129.366
1677.1,122.134
1678.8,121.794
1680.5,118.018
1682.3,108.216
1684,102.415
1685.7,101.3338
1687.5,101.8992
1689.2,97.537
1690.9,92.7982
1692.6,90.6974
1694.3,83.4856
1696.1,81.5046
1697.8,75.3592
1699.5,71.6468
1701.2,68.7754
1702.9,65.8518
1704.7,63.062
1706.4,65.9174
1708.1,60.9956
1709.8,57.9844
1711.5,51.5294
1713.2,52.1474
1714.9,46.766
1716.7,47.577
1718.4,43.7196
1720.1,43.6518
1721.8,40.75
1723.5,32.158
1725.2,28.819
1726.9,34.239
1728.6,31.529
1730.3,33.2382
1732,32.0142
1733.7,24.0668
1735.4,27.0918
1737.1,25.9046
1738.8,20.22016
1740.6,20.3336
1742.3,19.11
1744,20.3994
1745.7,17.49352
1747.3,17.9576
1749,12.62578
1750.7,14.21158
1752.4,11.30932
1754.1,14.88548
1755.8,12.39192
1757.5,10.02462
1759.2,8.217522
1760.9,9.22172
1762.6,7.06562
1764.3,8.84726
1766,8.43818
1767.7,7.37098
1769.4,4.75436
1771.1,7.158038
1772.7,7.43618
1774.4,6.280664
1776.1,4.79144
1777.8,6.1334
1779.5,5.10464
1781.2,6.68406
1782.8,4.63826
1784.5,1.02578
1786.2,4.5695
1787.9,-0.73524
1789.6,1.209144
1791.2,1.402606
1792.9,-0.38008
1794.6,0.618006
1796.3,-0.815938
1798,1.700274
1799.6,4.6402072
1801.3,0.126318
1803,-1.110682
1804.7,1.16342
1806.3,2.6209156
1808,1.93504
1809.7,-1.130554
1811.3,1.187342
1813,1.79334
1814.7,0.75858
1816.3,1.746612
1818,1.012854
1819.7,2.96112
1821.3,0.745658
1823,-0.0647599999999999
1824.7,-1.845332
1826.3,1.34620634
1828,1.018062
1829.7,3.32664
1831.3,5.63256
1833,2.8787
1834.6,2.08946
1836.3,3.451024
1838,4.994288
1839.6,-1.2665
1841.3,1.178184
1842.9,-0.77257968
1844.6,0.0984600000000001
1846.2,3.186676
1847.9,1.446678
1849.5,4.49772
1851.2,3.05541
1852.8,5.918318
1854.5,5.217292
1856.1,5.870484
1857.8,6.62612
1859.4,-1.472402
1861.1,1.977074
1862.7,1.903294
1864.4,3.01418
1866,4.08232
1867.7,0.45265
1869.3,2.274876
1871,3.542176
1872.6,3.188848
1874.2,2.4736782
1875.9,-0.00965400000000001
1877.5,3.05112
1879.2,0
1880.8,0.944834
1882.4,-2.98426
1884.1,0.064628
1885.7,-0.217868
1887.3,1.37334
1889,2.950046
1890.6,-1.477
1892.2,-2.52032
1893.9,3.88341852
1895.5,-6.63888
1897.1,-0.816036
1898.8,4.8217
1900.4,-3.2265
1902,-3.362858
1903.7,-4.25005
1905.3,-2.86932
1906.9,-0.283856
1908.5,1.107304
1910.2,0.0595000000000001
1911.8,-1.863408
1913.4,-2.687874
1915,-0.651674
1916.7,-2.586242
1918.3,-1.333268
1919.9,-2.3473882
1921.5,-3.09922
1923.1,-2.5658
1924.8,-4.181198
1926.4,-2.777396
1928,-4.880134
1929.6,-5.236914
1931.2,0.68862
1932.8,-2.905278
1934.4,-1.47094
1936.1,-2.53976
1937.7,-3.368348
1939.3,-2.5752584
1940.9,-3.94308
1942.5,-4.322458
1944.1,-6.03028
1945.7,-3.95204
1947.3,-9.32024
1948.9,-2.825228
1950.5,-2.0077
1952.1,0.091574
1953.8,-3.63873
1955.4,-4.94374
1957,-7.6004
1958.6,-3.525816
1960.2,-7.128634
1961.8,-5.425
1963.4,-2.7756
1965,-2.192892
1966.6,-3.59876
1968.2,-5.460982
1969.8,0.38062
1971.4,-5.10068
1973,-0.5681952
1974.5,-2.58838
1976.1,-3.310394
1977.7,-1.779736
1979.3,-3.2583
1980.9,-3.919986
1982.5,-1.128962
1984.1,-4.92676
1985.7,-0.5889758
1987.3,0.728498
1988.9,-2.792836
1990.5,2.886104
1992,-1.89602
1993.6,3.894542
1995.2,-0.224514
1996.8,0.38336
1998.4,-0.566748
2000,-2.793856
2001.6,-0.64576
2003.1,0.50112
2004.7,0.21634
2006.3,2.87856
2007.9,0.37106
2009.5,3.45066
2011,1.81884
2012.6,3.26694
2014.2,4.208444
2015.8,0.54132
2017.3,1.65404
2018.9,-0.7469874
2020.5,3.972528
2022.1,2.6912
2023.6,1.63796
2025.2,-0.912921
2026.8,0.00290599999999998
2028.3,0.49842
2029.9,0.811952
2031.5,-0.72954
2033,2.0785146
2034.6,-2.690058
2036.2,0.733362
2037.7,1.16706
2039.3,1.83808
2040.9,4.51204
2042.4,5.13654
2044,1.80008
2045.6,-1.83684
2047.1,-0.75814
2048.7,-0.366678
2050.2,-1.23006
2051.8,1.93032
2053.4,0.150482
2054.9,-0.744824
2056.5,1.691292
2058,-0.917444
2059.6,-0.00836600000000001
2061.1,2.819298
2062.7,-0.719736
2064.2,1.486746
2065.8,3.373946
2067.3,0.77696
2068.9,0.77084
2070.4,0.794646
2072,-1.651886
2073.5,-0.78028
2075.1,-2.029836
2076.6,3.205958
2078.2,-2.637468
2079.7,0.820982
2081.3,1.832158
2082.8,2.6037242
2084.4,3.7456
2085.9,3.79736
2087.4,4.0575
2089,3.27864
2090.5,-0.896962
2092.1,3.923532
2093.6,0.535476
2095.1,-1.399862
2096.7,3.333431
2098.2,3.191662
2099.7,3.0168
2101.3,1.158328
2102.8,3.377005
2104.3,4.363068
2105.9,5.88418
2107.4,4.6274
2108.9,1.691858
2110.5,3.833584
2112,1.93713
2113.5,0.905044
2115.1,6.34352
2116.6,-0.2151
2118.1,4.01124
2119.6,5.26292
2121.2,1.74794
2122.7,1.50684
2124.2,1.49198
2125.7,3.954716
2127.3,3.102456
2128.8,3.99742
2130.3,2.677202
2131.8,10.63724
2133.3,12.22336
2134.9,19.9702
2136.4,27.7662
2137.9,35.9376
2139.4,50.8448
2140.9,57.9542
2142.4,51.832
2144,42.9394
2145.5,20.9188
2147,12.90358
2148.5,11.03488
2150,10.25574
2151.5,6.34456
2153,5.046126
2154.5,2.09542
2156,0.572752
2157.6,-2.19252
2159.1,-0.141394
2160.6,-0.412366
2162.1,2.4081
2163.6,-0.207056
2165.1,0.173984
2166.6,0.49574
2168.1,-3.66602
2169.6,-7.54422
2171.1,0.3218916
2172.6,-0.450586
2174.1,1.165342
2175.6,-0.503222
2177.1,0.91756
2178.6,-2.05118
2180.1,-1.006216
2181.6,-2.28152
2183.1,-5.17936
2184.6,-0.0255240000000001
2186.1,0.0978340000000001
2187.5,-3.68284
2189,1.322878
2190.5,-1.880072
2192,-2.925
2193.5,-2.64938
2195,1.6068
2196.5,-2.59508
2198,-2.80828
2199.5,-2.386978
2201,-3.6329274
2202.4,-1.912932
2203.9,-0.458012
2205.4,-5.7073
2206.9,-4.250484
2208.4,-4.47652
2209.9,-1.0883672
2211.3,-0.9606
2212.8,-0.27194
2214.3,1.1418
2215.8,-2.242628
2217.3,-2.24782
2218.7,-1.86784
2220.2,-3.159597
2221.7,0.5023
2223.2,-2.53252
2224.6,-1.286948
2226.1,-1.905412
2227.6,-3.673034
2229.1,-1.3489334
2230.5,-3.452974
2232,-2.17586
2233.5,-6.68476
2234.9,-1.032282
2236.4,-2.82486
2237.9,-0.8524
2239.3,-2.60443
2240.8,-4.63618
2242.3,-1.495246
2243.7,-3.896
2245.2,-2.50394
2246.7,-4.135212
2248.1,-4.968776
2249.6,-3.30736
2251.1,-4.582734
2252.5,-3.59603
2254,-1.224606
2255.4,-2.92444
2256.9,-1.589304
2258.3,-0.158394
2259.8,-0.91448
2261.3,-4.145452
2262.7,-5.683
2264.2,-2.09246
2265.6,0.773622
2267.1,-2.99762
2268.5,-2.373558
2270,-1.716043
2271.4,-2.572304
2272.9,-4.06326
2274.3,0
2275.8,-0.787326
2277.2,-0.254336
2278.7,-3.01842
2280.1,-3.352658
2281.6,-3.67974
2283,-2.734188
2284.5,-2.52112
2285.9,-1.75205
2287.4,-1.41466
2288.8,-2.91815
2290.2,0.9821
2291.7,-1.007746
2293.1,-0.912712
2294.6,-1.34422
2296,-1.3628
2297.4,-1.345864
2298.9,-0.738456
2300.3,-3.237912
2301.7,0.87028
2303.2,-1.224754
2304.6,-1.7907696
2306,-0.295206
2307.5,-0.37018
2308.9,-1.25694
2310.3,0.190732
2311.8,-1.4835802
2313.2,-3.0570098
2314.6,-1.811962
2316.1,-0.288084
2317.5,0.409496
2318.9,-0.23808
2320.3,0.986882
2321.8,3.204524
2323.2,7.092636
2324.6,7.86336
2326,19.65546
2327.5,24.3798
2328.9,30.9018
2330.3,30.726
2331.7,22.4288
2333.2,14.7928
2334.6,8.82032
2336,5.323676
2337.4,4.153032
2338.8,2.09152
2340.2,2.0608
2341.7,2.313972
2343.1,0.372686
2344.5,2.211446
2345.9,2.14768
2347.3,-4.13484
2348.7,-0.8309
2350.1,-1.3054
2351.6,-0.35156
2353,2.804988
2354.4,1.35892506
2355.8,-0.896622
2357.2,-1.86648
2358.6,-5.11934
2360,2.04322
2361.4,-0.20196
2362.8,3.074386
2364.2,1.66788
2365.6,-0.230728
2367,3.4648
2368.4,2.902144
2369.8,1.19978
2371.2,2.275236
2372.6,2.62528
2374,0.0245499999999999
2375.4,-0.0301600000000001
2376.8,0.48958
2378.2,-1.1487
2379.6,3.083632
2381,0.00179999999999989
2382.4,1.688202
2383.8,-0.40066
2385.2,0.316392
2386.6,0.2985068
2388,-0.0217040000000004
2389.4,-0.50906
2390.8,0.633552
2392.1,1.223502
2393.5,1.419686
2394.9,2.41078
2396.3,4.46178
2397.7,0.767284
2399.1,2.50748
2400.5,2.9628
2401.9,0.0320742000000002
2403.2,1.646254
2404.6,-0.3191
2406,1.203646
2407.4,0.0661399999999998
2408.8,-2.00384
2410.2,1.93774
2411.5,2.110834
2412.9,-0.0496800000000001
2414.3,0.548154
2415.7,0
2417,1.240004
2418.4,2.08716
2419.8,-0.407866
2421.2,1.615006
2422.5,2.652578
2423.9,1.06438
2425.3,1.736654
2426.7,0.4343
2428,2.87572
2429.4,1.43908
2430.8,-2.359786
2432.1,0.38434
2433.5,2.801896
2434.9,1.983768
2436.2,0.5804
2437.6,2.369852
2439,1.5852
2440.3,0.351
2441.7,0.92534
2443.1,2.48744
2444.4,4.365992
2445.8,-2.144096
2447.2,0.547742
2448.5,4.571084
2449.9,1.14766
2451.2,2.62082
2452.6,2.14752
2454,1.21122
2455.3,3.0565592
2456.7,5.23916
2458,1.952738
2459.4,2.549988
2460.7,2.09592
2462.1,3.5872916
2463.4,1.27252
2464.8,4.68954
2466.1,4.92364
2467.5,4.9386
2468.8,3.69366
2470.2,5.33251
2471.5,2.3035262
2472.9,1.8448426
2474.2,1.6259
2475.6,6.40477
2476.9,4.83142
2478.3,3.0209752
2479.6,4.85708
2481,3.451882
2482.3,-0.2122228
2483.6,4.62246
2485,3.1787
2486.3,3.417936
2487.7,0.5190836
2489,3.318302574
2490.3,3.473888
2491.7,7.29616
2493,2.6943
2494.4,1.877048
2495.7,8.288
2497,2.18492
2498.4,3.76844
2499.7,2.2228364
2501,3.046584
2502.4,1.02186
2503.7,2.937998
2505,1.51172
2506.4,2.77538
2507.7,-0.150314
2509,-0.846996
2510.3,4.81222
2511.7,0.184444
2513,2.034578
2514.3,3.81864
2515.6,1.434826
2517,2.5020516
2518.3,0.980642
2519.6,0.65662
2520.9,0
2522.3,2.13676
2523.6,3.224188
2524.9,1.59992
2526.2,-0.0539000000000001
2527.5,0.36808
2528.9,1.244588
2530.2,-0.128836
2531.5,1.2004618
2532.8,2.98784
2534.1,2.51138
2535.4,1.851072
2536.8,4.06333
2538.1,1.72554
2539.4,4.425942
2540.7,0.83812
2542,4.78112
2543.3,3.07018
2544.6,0.468296
2545.9,0.412922
2547.2,-1.7595492
2548.6,2.081996
2549.9,0.66698
2551.2,2.64708
2552.5,2.433036
2553.8,2.919642
2555.1,2.586608
2556.4,1.526606
2557.7,2.922672
2559,2.612256
2560.3,2.944542
2561.6,0.9597
2562.9,3.979332
2564.2,3.8673
2565.5,2.684012
2566.8,3.5837
2568.1,1.39923
2569.4,0.351183
2570.7,2.3429972
2572,2.171968
2573.3,0.249038
2574.6,0.767878
2575.9,0.157078
2577.1,4.040796
2578.4,2.17832
2579.7,0.196738
2581,6.4699
2582.3,3.75388
2583.6,1.80628
2584.9,0.524
2586.2,4.085202
2587.5,-2.35768
2588.7,-0.210872
2590,1.5045608
2591.3,2.09707008
2592.6,1.16286
2593.9,4.31996
2595.2,2.2466314
2596.4,2.83451
2597.7,1.976018
2599,1.89811
2600.3,2.048824
2601.6,2.4081228
2602.8,2.650098
2604.1,1.32348
2605.4,1.933882
2606.7,0.896998
2608,2.543778
2609.2,2.088014
2610.5,2.6809
2611.8,1.006464
2613,2.007512
2614.3,-0.60954
2615.6,-1.19791
2616.9,-0.84816
2618.1,2.67738
2619.4,-1.00376
2620.7,-2.412244
2621.9,-1.128202
2623.2,0.245182
2624.5,2.505134
2625.7,3.498038
2627,-0.56505
2628.3,1.499234
2629.5,0
2630.8,2.19776
2632.1,1.5064708
2633.3,-0.406654
2634.6,-0.4781
2635.8,0.460012
2637.1,0.3731942
2638.4,-0.93498
2639.6,-0.551784
2640.9,2.294802
2642.1,-1.107574
2643.4,1.462316
2644.6,-0.36964
2645.9,1.38382
2647.2,-2.015848
2648.4,0.2950978
2649.7,-1.14548
2650.9,2.83216
2652.2,1.183062
2653.4,0.891518
2654.7,1.275142
2655.9,-3.565844
2657.2,0.72572
2658.4,1.8644054
2659.7,1.022684
2660.9,1.15092
2662.2,-0.28464
2663.4,0.1180018
2664.6,3.68024
2665.9,3.128894
2667.1,-2.63764
2668.4,1.541912
2669.6,1.05344
2670.9,-0.89118
2672.1,-1.179816
2673.3,1.845074
2674.6,2.243882
2675.8,-0.86632
2677.1,0.230732
2678.3,-1.46062
2679.5,1.684782
2680.8,1.75416
2682,-0.48884
2683.2,-0.693674
2684.5,2.79091
2685.7,-0.591716
2686.9,1.208396
2688.2,-0.324414
2689.4,2.570022
2690.6,-2.95276
2691.9,0.258292
2693.1,0.11026
2694.3,0.314086
2695.5,0.471682
2696.8,2.08851
2698,-0.81025
2699.2,-0.295242
2700.4,1.2198684
2701.7,-0.49838
2702.9,-1.4327338
2704.1,1.68356
2705.3,-0.599053
2706.6,-0.224632
2707.8,1.739692
2709,-0.0558299999999997
2710.2,1.85788
2711.4,-1.31033
2712.6,0.0562000000000003
2713.9,1.138324
2715.1,0.94606
2716.3,1.930432
2717.5,-1.62184
2718.7,0.917014
2719.9,-3.22006
2721.2,-1.179454
2722.4,0.232254
2723.6,-2.4264
2724.8,0.0291
2726,0
2727.2,2.755188
2728.4,0.755476
2729.6,0.98294
2730.8,-1.333426
2732,-0.832386
2733.3,-1.285264
2734.5,0.0735400000000003
2735.7,-0.0492799999999998
2736.9,-0.08508
2738.1,-0.5604
2739.3,-1.15656
2740.5,1.56946
2741.7,-2.5276996
2742.9,-0.56174
2744.1,2.025266
2745.3,-6.58126
2746.5,-1.01808
2747.7,-2.068214
2748.9,-0.6693
2750.1,1.95025
2751.3,1.37254
2752.5,1.84506
2753.7,-0.982494
2754.9,0.107518
2756,0.0533968
2757.2,-3.477602
2758.4,1.79654
2759.6,1.105988
2760.8,0.46874
2762,-0.174754
2763.2,-0.3752438
2764.4,0.8769982
2765.6,0.570256
2766.8,-0.286416
2767.9,-0.442805
2769.1,-0.1769
2770.3,1.056066
2771.5,1.651274
2772.7,0.0144400000000003
2773.9,0.4750724
2775.1,-0.85364
2776.2,1.85392
2777.4,-0.6224108
2778.6,1.328716
2779.8,1.8049
2781,-0.163606
2782.1,-1.1392
2783.3,1.71862
2784.5,0.0264140000000001
2785.7,-0.64456
2786.8,1.354328
2788,0.971742
2789.2,1.844494
2790.4,-1.28102
2791.5,0.62636
2792.7,1.884732
2793.9,0.989082
2795.1,-1.300416
2796.2,-2.619496
2797.4,0.46112
2798.6,-1.94698
2799.7,3.06083
2800.9,-0.143386
2802.1,0.4957
2803.2,0.3786172
2804.4,-0.89148
2805.6,-0.53382978
2806.7,1.04036
2807.9,-1.20078
2809.1,-0.85232
2810.2,-0.882282
2811.4,-0.054918
2812.6,0.255
2813.7,0.39046
2814.9,0.22186
2816,0.4669
2817.2,1.129
2818.4,0
2819.5,0.32684
2820.7,0.7434
2821.8,1.651582
2823,-1.900464
2824.1,1.1007
2825.3,3.0092
2826.4,1.93944
2827.6,-1.78568
2828.7,-0.562398
2829.9,2.194582
2831,3.26188
2832.2,2.8630566
2833.3,0.7414054
2834.5,1.47844
2835.6,-0.0384700000000001
2836.8,0.99264
2837.9,1.496702
2839.1,-0.847068
2840.2,-0.791482
2841.4,-1.840224
2842.5,-0.652624
2843.7,-1.534704
2844.8,-0.23764
2845.9,-1.054802
2847.1,3.807518
2848.2,-0.11994
2849.4,2.3823
2850.5,0.75188
2851.7,-1.71934
2852.8,-1.280064
2853.9,0.226818
2855.1,-1.74858
2856.2,-0.48224
2857.3,-0.0246480000000002
2858.5,-0.553898
2859.6,-0.314512
2860.7,1.684642
2861.9,1.281614
2863,0.485642
2864.1,-0.59598528
2865.3,0.450056
2866.4,-1.242216
2867.5,2.01478
2868.7,-1.7176222
2869.8,1.2017306
2870.9,2.047354
2872,1.8982
2873.2,-0.849288
2874.3,0.80442
2875.4,0.19694
2876.5,-0.7685562
2877.7,-0.10976
2878.8,1.964542
2879.9,-1.2315422
2881,1.1595166
2882.2,-0.88548
2883.3,3.70348
2884.4,-1.344776
2885.5,-1.58034
2886.6,1.176014
2887.8,-2.347018
2888.9,0.35572
2890,4.603198
2891.1,-2.44044
2892.2,0.343302
2893.3,1.895948
2894.4,1.446382
2895.6,1.85096
2896.7,2.58442
2897.8,-0.18107
2898.9,-1.618346
2900,-0.34042
2901.1,1.50149
2902.2,-0.684994
2903.3,1.467114
2904.4,-0.362962
2905.6,-0.49332
2906.7,1.4670734
2907.8,0.65256
2908.9,1.92072
2910,2.55723
2911.1,0.5245314
2912.2,1.3923
2913.3,2.588294
2914.4,1.9919
2915.5,0.296624
2916.6,0.94754
2917.7,2.410981
2918.8,-2.334112
2919.9,4.75492
2921,1.66454
2922.1,5.3016
2923.2,3.80086
2924.3,4.16561
2925.4,1.04848
2926.5,3.73508
2927.6,5.3118
2928.7,3.885502
2929.8,3.61218
2930.8,4.529872
2931.9,2.08064
2933,4.54088
2934.1,5.1727
2935.2,5.454268
2936.3,3.57956
2937.4,3.309964
2938.5,4.991658
2939.6,3.618072
2940.6,2.88576
2941.7,6.53276
2942.8,7.467506
2943.9,3.100246
2945,3.760544
2946.1,1.905728
2947.2,5.87758
2948.2,7.7494
2949.3,4.238818
2950.4,5.467986
2951.5,7.36904
2952.6,6.0006
2953.6,5.569188
2954.7,5.81829
2955.8,8.97624
2956.9,6.48642
2957.9,8.20978
2959,10.56364
2960.1,5.95246
2961.2,6.4026
2962.2,7.99618
2963.3,9.694704
2964.4,7.96682
2965.5,10.42054
2966.5,8.72156
2967.6,5.42384
2968.7,7.50898
2969.7,7.17912
2970.8,10.1363
2971.9,11.328262
2973,9.29004
2974,8.323018
2975.1,10.09142
2976.2,12.67798
2977.2,12.46328
2978.3,9.86092
2979.3,10.37304
2980.4,12.60872
2981.5,9.07064
2982.5,12.68102
2983.6,10.22248
2984.7,12.81428
2985.7,9.43516
2986.8,11.78448
2987.8,13.75334
2988.9,12.96018
2989.9,14.26694
2991,13.58988
2992.1,15.57104
2993.1,12.88628
2994.2,17.13724
2995.2,16.59776
2996.3,13.37336
2997.3,13.8929
2998.4,14.83108
2999.4,16.92556
3000.5,17.62858
3001.5,15.46322
3002.6,19.4866
3003.6,19.06546
3004.7,17.80226
3005.7,19.5156
3006.8,17.14648
3007.8,20.85228
3008.9,23.5436
3009.9,21.7962
3011,20.4334
3012,22.5
3013,22.4224
3014.1,26.591
3015.1,22.4164
3016.2,23.8534
3017.2,26.0672
3018.2,25.1752
3019.3,28.0416
3020.3,26.6066
3021.4,26.5016
3022.4,26.8018
3023.4,29.823
3024.5,28.6758
3025.5,30.5952
3026.5,30.81
3027.6,28.135
3028.6,31.4204
3029.6,28.8884
3030.7,27.6216
3031.7,27.9006
3032.7,34.0434
3033.8,35.671
3034.8,35.6514
3035.8,36.3652
3036.9,35.4334
3037.9,37.311
3038.9,35.5572
3039.9,36.5588
3041,37.7952
3042,41.7532
3043,37.614
3044,38.727
3045.1,41.0676
3046.1,39.7524
3047.1,40.3016
3048.1,43.0592
3049.2,44.3708
3050.2,47.587
3051.2,48.557
3052.2,46.5534
3053.2,46.0418
3054.3,48.516
3055.3,47.7724
3056.3,47.8362
3057.3,50.1242
3058.3,49.7994
3059.3,48.1368
3060.3,50.4876
3061.4,52.6886
3062.4,54.0788
3063.4,54.8172
3064.4,55.6846
3065.4,56.3588
3066.4,57.6326
3067.4,54.8834
3068.4,59.2158
3069.5,58.0188
3070.5,61.1482
3071.5,58.8968
3072.5,61.3398
3073.5,61.7314
3074.5,64.2014
3075.5,60.3972
3076.5,64.0396
3077.5,66.0296
3078.5,68.384
3079.5,71.8446
3080.5,70.2766
3081.5,70.5576
3082.5,68.1446
3083.5,70.0194
3084.5,73.8626
3085.5,72.2818
3086.5,71.8418
3087.5,72.7226
3088.5,74.3234
3089.5,76.3438
3090.5,73.0736
3091.5,79.1866
3092.5,79.5402
3093.5,80.2266
3094.5,83.2186
3095.5,81.1638
3096.4,83.2312
3097.4,81.497
3098.4,81.3494
3099.4,85.4004
3100.4,89.1496
3101.4,86.875
3102.4,91.4696
3103.4,89.041
3104.4,85.7904
3105.3,93.4164
3106.3,92.4372
3107.3,92.6338
3108.3,93.9212
3109.3,95.1034
3110.3,97.201
3111.3,101.2524
3112.2,96.2964
3113.2,103.6682
3114.2,103.6454
3115.2,103.7888
3116.2,106.1664
3117.1,105.4232
3118.1,105.6288
3119.1,106.5664
3120.1,108.7808
3121,107.253
3122,109.0996
3123,111.578
3124,110.386
3124.9,118.256
3125.9,113.586
3126.9,117.274
3127.9,118.072
3128.8,120.864
3129.8,120.884
3130.8,119.752
3131.7,121.662
3132.7,122.02
3133.7,123.202
3134.7,125.052
3135.6,124.424
3136.6,128.532
3137.6,126.43
3138.5,126.464
3139.5,131.336
3140.4,128.268
3141.4,133.202
3142.4,129.664
3143.3,131.774
3144.3,134.238
3145.3,135.252
3146.2,135.306
3147.2,139.346
3148.1,132.158
3149.1,135.254
3150.1,135.118
3151,137.284
3152,140.22
3152.9,139.078
3153.9,143.332
3154.8,144.99
3155.8,142.632
3156.7,140.076
3157.7,146.078
3158.6,142.81
3159.6,141.71
3160.6,148.702
3161.5,149.96
3162.5,146.658
3163.4,145.97
3164.4,146.572
3165.3,140.642
3166.2,149.804
3167.2,149.51
3168.1,149.356
3169.1,144.834
3170,151.908
3171,149.738
3171.9,154.086
3172.9,149.248
3173.8,148.408
3174.7,149.404
3175.7,153.174
3176.6,153.492
3177.6,149.79
3178.5,153.704
3179.5,151.1
3180.4,152.592
3181.3,156.514
3182.3,153.698
3183.2,154.668
3184.1,152.616
3185.1,154.524
3186,150.176
3186.9,156.406
3187.9,153.836
3188.8,156.948
3189.7,151.848
3190.7,154.076
3191.6,154.236
3192.5,152.918
3193.5,153.376
3194.4,156.212
3195.3,154.18
3196.3,153.452
3197.2,154.848
3198.1,153.528
3199,153.132
3200,154.09
3200.9,149.714
3201.8,153.106
3202.7,153.626
3203.7,150.178
3204.6,150.27
3205.5,150.76
3206.4,148.244
3207.3,148.83
3208.3,145.966
3209.2,148.028
3210.1,144.426
3211,143.022
3211.9,143.632
3212.9,140.132
3213.8,144.322
3214.7,141.09
3215.6,138.634
3216.5,139.9
3217.4,135.582
3218.4,135.488
3219.3,134.028
3220.2,132.872
3221.1,130.938
3222,130.636
3222.9,130.514
3223.8,128.616
3224.7,126.434
3225.6,125.522
3226.6,124.17
3227.5,120.632
3228.4,120.094
3229.3,117.826
3230.2,118.992
3231.1,113.776
3232,111.644
3232.9,112.828
3233.8,108.88
3234.7,103.4852
3235.6,99.9844
3236.5,103.1614
3237.4,101.6852
3238.3,97.8396
3239.2,97.3602
3240.1,91.957
3241,90.9952
3241.9,87.7796
3242.8,85.4346
3243.7,79.1612
3244.6,81.5332
3245.5,76.696
3246.4,71.1594
3247.3,66.6254
3248.2,64.377
3249.1,60.9384
3250,51.9308
3250.9,49.5366
3251.8,42.235
3252.7,31.337
3253.5,22.624
3254.4,16.2104
3255.3,8.67008
3256.2,-5.99802
