250.34,-6.29222
252.57,-5.33088
254.8,0
257.03,-6.21614
259.26,-5.61864
261.48,2.07708
263.71,2.62986
265.94,-4.07066
268.16,1.008684
270.39,-2.5544
272.61,-3.98018
274.84,-0.491932
277.06,0.0894659999999999
279.28,0.34153
281.51,1.640105
283.73,2.57344
285.95,9.472548
288.17,3.219618
290.39,2.81638
292.61,1.93598
294.83,-1.91602
297.05,0.845596
299.27,-0.5337964
301.48,7.73044
303.7,12.10808
305.91,12.79388
308.13,10.587
310.35,9.370996
312.56,6.72924
314.77,9.51302
316.99,6.1575
319.2,7.93848
321.41,9.08952
323.62,5.95658
325.83,-0.122
328.04,5.8328
330.25,7.1705
332.46,0.78634
334.67,6.8198
336.88,4.53882
339.08,10.99154
341.29,23.406
343.5,37.23
345.7,72.0928
347.91,134.09
350.11,292.318
352.31,548.666
354.52,717.508
356.72,658.898
358.92,435.67
361.12,255.574
363.32,136.302
365.52,85.7306
367.72,59.8328
369.92,40.537
372.12,38.6024
374.32,41.638
376.51,63.0202
378.71,76.3034
380.9,59.8304
383.1,37.8526
385.29,11.97748
387.49,7.45752
389.68,7.0216
391.87,6.09792
394.07,0.188054
396.26,-0.174294
398.45,2.128916
400.64,0.324354
402.83,15.02376
405.02,18.3808
407.21,33.588
409.39,55.144
411.58,132.636
413.77,363.742
415.95,641.21
418.14,700
420.32,476.988
422.51,235.734
424.69,122.78
426.87,80.4202
429.06,78.562
431.24,69.2646
433.42,53.5254
435.6,28.1778
437.78,10.3869
439.96,0.1807914
442.14,-0.002550784
444.31,8.67944
446.49,29.9126
448.67,44.0888
450.84,37.725
453.02,16.62436
455.19,2.800782
457.37,2.284748
459.54,-3.6122
461.71,-2.969612
463.89,-5.963684
466.06,-5.42388
468.23,-3.31858
470.4,-12.34974
472.57,-7.52698
474.74,-9.4751
476.91,-11.64904
479.07,-5.69354
481.24,-0.4709498
483.41,5.0875184
485.57,4.215784
487.74,3.04288
489.9,3.33198
492.07,0.167926
494.23,-0.0839699999999999
496.4,-3.45736
498.56,-7.74092
500.72,-4.4958
502.88,-16.12238
505.04,-15.62312
507.2,-3.81328
509.36,-6.30724
511.52,-3.74186
513.68,-4.12704
515.83,-2.71006
517.99,3.705732
520.14,-2.6322
522.3,-6.63148
524.45,-4.74484
526.61,-0.15314
528.76,-0.30538
530.91,2.977758
533.07,8.9834
535.22,5.06884
537.37,7.5511
539.52,9.6265
541.67,12.82852
543.82,10.14428
545.97,6.3573
548.11,4.9322
550.26,-0.712776
552.41,-1.04508
554.55,0.311344
556.7,-2.23422
558.84,5.00837
560.98,13.399132
563.13,14.23662
565.27,18.0388
567.41,28.2688
569.55,51.321
571.69,86.0534
573.83,155.224
575.97,237.796
578.11,314.582
580.25,431.55
582.39,766.406
584.52,1382.26
586.66,1887.48
588.79,1838.04
590.93,1305.32
593.06,750.506
595.19,405.864
597.33,217.768
599.46,126.432
601.59,66.2012
603.72,33.816
605.85,11.5738
607.98,0.1259128
610.11,-10.709006
612.24,-14.5202
614.36,-9.06104
616.49,-9.70618
618.62,-7.16476
620.74,-2.106528
622.87,0.0318800000000001
624.99,-0.2557292
627.11,0.827902
629.24,-4.29092
631.36,-8.56524
633.48,-1.578952
635.6,-4.9358
637.72,-2.030604
639.84,-2.4231
641.96,0.04554136
644.08,-2.3798628
646.2,-7.655198
648.31,-9.71418
650.43,-12.19278
652.54,-14.987812
654.66,-18.9007
656.77,-15.83228
658.89,-18.66976
661,-21.9134
663.11,-15.23422
665.22,-24.7558
667.33,-24.4576
669.44,-28.469
671.55,-28.4576
673.66,-29.1814
675.77,-38.388
677.88,-37.5088
679.98,-38.0756
682.09,-34.5282
684.2,-31.8048
686.3,-32.0542
688.4,-36.5102
690.51,-27.64416
692.61,-27.4996
694.71,-27.6072
696.81,-28.3194
698.92,-29.546
701.02,-25.7874
703.11,-26.8042
705.21,-19.6982
707.31,-16.4462
709.41,-17.6524
711.51,-16.32708
713.6,-15.21062
715.7,-14.801608
717.79,-11.26878
719.89,-12.09136
721.98,-7.2424
724.07,-13.00336
726.16,-11.2083
728.25,-5.1198
730.35,1.778356
732.44,6.3451
734.52,21.20502
736.61,40.2136
738.7,55.6628
740.79,83.5414
742.87,122.554
744.96,164.734
747.05,219.59
749.13,260.67
751.21,256.988
753.3,223.446
755.38,174.45
757.46,120.51
759.54,78.4314
761.62,57.756
763.7,38.44
765.78,25.6126
767.86,15.68234
769.94,9.83974
772.01,-1.090862
774.09,1.12298
776.17,-3.06432
778.24,-4.48202
780.32,-2.80834
782.39,-4.794404
784.46,-1.384814
786.53,2.72502
788.61,0.0558799999999998
790.68,2.04264
792.75,5.4118
794.82,8.75352
796.89,8.26134
798.95,9.426394
801.02,8.20992
803.09,15.855056
805.15,20.1646
807.22,36.4506
809.28,91.485
811.35,212.604
813.41,339.022
815.47,346.19
817.53,232.716
819.6,124.6808
821.66,63.4242
823.72,30.1368
825.78,16.54368
827.83,13.88988
829.89,8.46588
831.95,12.68998
834,5.33562
836.06,8.092946
838.12,8.7362
840.17,8.20182
842.22,3.78122
844.28,4.50824
846.33,6.70114
848.38,6.2817
850.43,7.908594
852.48,6.86374
854.53,4.20702
856.58,6.498518
858.63,5.264916
860.67,7.71964
862.72,9.57284
864.77,3.93244
866.81,9.92894
868.86,8.09638
870.9,3.46422
872.94,3.86784
874.98,-1.056628
877.03,1.464122
879.07,-3.09302
881.11,-1.8573792
883.15,1.7176
885.19,1.6017408
887.22,2.46756
889.26,-0.16956
891.3,-2.366226
893.33,-3.055038
895.37,-4.19636
897.4,-6.3208
899.44,0
901.47,-2.32512
903.5,-3.6193048
905.54,-1.744448
907.57,0.59562
909.6,0.40988
911.63,-2.44172
913.66,2.22772
915.68,0.93188
917.71,-4.56524
919.74,-6.625386
921.76,-5.218
923.79,-7.7763
925.82,1.47769
927.84,3.9942
929.86,2.882246
931.89,6.071926
933.91,4.4277
935.93,4.73628
937.95,2.38233
939.97,-1.99158
941.99,-6.497646
944.01,0.24466
946.02,-4.73854
948.04,0.9918458
950.06,-1.50312
952.07,0.15102
954.09,1.0721536
956.1,4.49284
958.12,6.72234
960.13,3.784626
962.14,-1.535032
964.15,2.63842
966.16,-0.85524
968.17,-6.74334
970.18,0.66399
972.19,-1.98804
974.2,-2.682642
976.2,4.06948
978.21,2.36774
980.22,1.92534
982.22,3.5094
984.22,8.10392
986.23,5.52008
988.23,-0.14658
990.23,5.13712
992.23,4.477526
994.24,5.116978
996.23,3.521334
998.23,5.14094
1000.2,9.3289
1002.2,15.03762
1004.2,14.03508
1006.2,12.95124
1008.2,16.9854
1010.2,14.77384
1012.2,17.5094
1014.2,18.536
1016.2,18.824
1018.2,20.4456
1020.2,22.7964
1022.2,22.3402
1024.2,29.8434
1026.1,35.1042
1028.1,54.1988
1030.1,100.9728
1032.1,202.688
1034.1,284.228
1036.1,261.542
1038.1,166.52
1040.1,89.8004
1042,53.4508
1044,38.1876
1046,30.166
1048,27.2364
1050,28.025
1051.9,28.8864
1053.9,25.8346
1055.9,20.8566
1057.9,17.8932
1059.9,23.6184
1061.8,17.5392
1063.8,11.8927
1065.8,12.35104
1067.8,12.22492
1069.7,8.6885
1071.7,12.79814
1073.7,12.6076
1075.6,19.838
1077.6,13.89452
1079.6,13.43512
1081.5,9.69372
1083.5,7.35186
1085.5,6.84194
1087.5,9.632012
1089.4,4.70818
1091.4,5.78224
1093.3,4.62046
1095.3,4.88598
1097.3,7.69834
1099.2,8.48954
1101.2,4.8642272
1103.2,5.138196
1105.1,4.04972
1107.1,-0.45037
1109,4.51368
1111,-1.482768
1113,-0.993678
1114.9,2.662276
1116.9,1.577814
1118.8,-5.362286
1120.8,4.00772
1122.7,8.75566
1124.7,8.65208
1126.6,5.0602
1128.6,2.32172
1130.5,10.46792
1132.5,7.3473
1134.4,2.268644
1136.4,10.94776
1138.3,6.952064
1140.3,10.03742
1142.2,10.94886
1144.2,8.67464
1146.1,12.12668
1148.1,7.64342
1150,12.39068
1151.9,9.259118
1153.9,11.82002
1155.8,11.22306
1157.8,11.37324
1159.7,9.66988
1161.6,11.211
1163.6,13.38668
1165.5,16.5872
1167.5,15.0648
1169.4,14.21902
1171.3,20.337
1173.3,20.554
1175.2,16.9676
1177.1,16.75434
1179.1,15.451
1181,17.6986
1182.9,18.9302
1184.9,14.05806
1186.8,19.1214
1188.7,22.294
1190.6,20.154
1192.6,21.6496
1194.5,25.5636
1196.4,23.439
1198.4,20.7508
1200.3,19.5532
1202.2,22.5214
1204.1,27.0804
1206,21.4456
1208,23.867
1209.9,26.4018
1211.8,34.6676
1213.7,34.4074
1215.6,38.2946
1217.6,34.9436
1219.5,38.0356
1221.4,41.2452
1223.3,36.783
1225.2,33.5796
1227.1,38.1506
1229.1,39.8554
1231,43.0502
1232.9,45.3222
1234.8,52.012
1236.7,51.106
1238.6,57.9522
1240.5,61.491
1242.4,70.8918
1244.3,77.0328
1246.2,86.2524
1248.1,90.3564
1250.1,89.6692
1252,91.7644
1253.9,101.5884
1255.8,111.522
1257.7,126.212
1259.6,146.368
1261.5,165.668
1263.4,186.672
1265.3,218
1267.2,242.136
1269.1,270.272
1271,297.556
1272.9,315.216
1274.8,325.912
1276.6,335.268
1278.5,318.476
1280.4,320.636
1282.3,364.492
1284.2,389.16
1286.1,355.668
1288,268.128
1289.9,205.586
1291.8,163.596
1293.7,139.448
1295.6,126.438
1297.4,118.24
1299.3,109.546
1301.2,106.238
1303.1,102.88
1305,99.6898
1306.9,95.8642
1308.7,92.6936
1310.6,91.4012
1312.5,82.8928
1314.4,84.818
1316.3,84.9028
1318.1,77.8614
1320,80.817
1321.9,77.004
1323.8,81.395
1325.7,80.8636
1327.5,81.9106
1329.4,80.244
1331.3,79.191
1333.1,73.4278
1335,80.095
1336.9,79.0846
1338.8,79.1988
1340.6,85.3664
1342.5,86.094
1344.4,87.8184
1346.2,92.8698
1348.1,92.3188
1350,103.306
1351.8,107.724
1353.7,113.484
1355.6,119.922
1357.4,126.75
1359.3,132.714
1361.1,148.532
1363,161.674
1364.9,189.728
1366.7,217.312
1368.6,251.88
1370.4,293.18
1372.3,352.54
1374.2,431.814
1376,560.424
1377.9,719.966
1379.7,885.124
1381.6,1014.97
1383.4,1075.662
1385.3,1085.788
1387.1,1009.312
1389,839.886
1390.8,608.868
1392.7,430.746
1394.5,323.824
1396.4,254.294
1398.2,209.648
1400.1,181.092
1401.9,154
1403.8,140.114
1405.6,123.682
1407.4,117.612
1409.3,105.3482
1411.1,89.8462
1413,72.7036
1414.8,59.4802
1416.6,57.1218
1418.5,46.847
1420.3,41.4816
1422.2,37.0116
1424,32.8772
1425.8,24.781
1427.7,26.1246
1429.5,21.979
1431.3,19.5492
1433.2,13.03468
1435,7.6928
1436.8,13.82668
1438.7,12.42074
1440.5,12.85046
1442.3,5.123981
1444.1,8.35822
1446,10.8632
1447.8,8.85398
1449.6,5.93522
1451.4,2.32798
1453.3,5.848866
1455.1,-0.41816
1456.9,0.23064
1458.7,1.901312
1460.6,-0.606226
1462.4,1.36432
1464.2,2.85236
1466,-2.44806
1467.8,0.0836
1469.6,-3.6775
1471.5,-4.4719
1473.3,-2.04802
1475.1,-5.47502
1476.9,-5.37124
1478.7,0.00357599999999998
1480.5,-2.526934
1482.4,-0.7485
1484.2,-3.3075
1486,-3.491632
1487.8,-3.7068868
1489.6,-4.53008
1491.4,-1.67756
1493.2,-4.02776
1495,-2.72452
1496.8,0.18281
1498.6,-3.768624
1500.4,-3.255138
1502.2,-3.30918
1504,-3.34296
1505.8,-2.98631
1507.6,-0.28845
1509.4,3.385078
1511.2,2.69668
1513,1.776897
1514.8,-4.092374
1516.6,-1.83407
1518.4,-3.7651032
1520.2,-0.18716
1522,3.829058
1523.8,1.386454
1525.6,0.371774
1527.4,-0.33506
1529.2,0.3588
1531,-4.22884
1532.8,-2.49138
1534.6,-3.011156
1536.4,-1.74878
1538.2,0.969028
1539.9,-0.0250200000000001
1541.7,2.97748
1543.5,4.9597
1545.3,5.48056
1547.1,7.34936
1548.9,16.692
1550.7,15.0214
1552.4,22.5614
1554.2,28.15
1556,34.0144
1557.8,31.1448
1559.6,19.7368
1561.3,29.241
1563.1,23.3056
1564.9,27.7914
1566.7,33.7108
1568.4,35.1488
1570.2,38.0994
1572,38.265
1573.8,45.8684
1575.5,44.8948
1577.3,52.2004
1579.1,60.0554
1580.9,61.6206
1582.6,65.0058
1584.4,70.9138
1586.2,79.7074
1587.9,83.1474
1589.7,88.018
1591.5,93.9436
1593.2,99.2784
1595,101.8692
1596.8,106.0568
1598.5,110.968
1600.3,123.826
1602,127.644
1603.8,131.248
1605.6,140.738
1607.3,152.208
1609.1,156.676
1610.8,159.384
1612.6,166.288
1614.4,177.5
1616.1,179.808
1617.9,185.956
1619.6,185.868
1621.4,194.088
1623.1,201.126
1624.9,202.028
1626.6,206.648
1628.4,214.078
1630.1,221.074
1631.9,221.382
1633.6,225.79
1635.4,224.806
1637.1,231.656
1638.9,228.008
1640.6,229.388
1642.4,231.242
1644.1,225.152
1645.8,232.576
1647.6,234.154
1649.3,225.576
1651.1,228.786
1652.8,223.086
1654.6,223.386
1656.3,217.868
1658,213.674
1659.8,211.872
1661.5,211.196
1663.2,204.16
1665,198.322
1666.7,196.27
1668.4,190.924
1670.2,184.172
1671.9,182.978
1673.6,175.95
1675.4,171.918
1677.1,164.842
1678.8,161.276
1680.5,160.572
1682.3,150.136
1684,142.274
1685.7,143.56
1687.5,140.028
1689.2,130.046
1690.9,130.22
1692.6,127.886
1694.3,116.936
1696.1,113.618
1697.8,106.0768
1699.5,101.9164
1701.2,99.033
1702.9,95.904
1704.7,91.9884
1706.4,90.5436
1708.1,82.82
1709.8,77.629
1711.5,78.7358
1713.2,74.7798
1714.9,70.1088
1716.7,67.9656
1718.4,68.6152
1720.1,59.569
1721.8,57.1662
1723.5,54.141
1725.2,48.8592
1726.9,48.8082
1728.6,47.853
1730.3,43.8618
1732,46.337
1733.7,40.6134
1735.4,42.5168
1737.1,35.385
1738.8,36.3942
1740.6,33.6634
1742.3,28.7076
1744,28.194
1745.7,23.3632
1747.3,23.0368
1749,20.3776
1750.7,22.973
1752.4,19.5704
1754.1,18.665
1755.8,16.2138
1757.5,18.3214
1759.2,17.0749
1760.9,17.9294
1762.6,14.36182
1764.3,12.08838
1766,16.3858
1767.7,13.47514
1769.4,8.78942
1771.1,11.6036
1772.7,9.35106
1774.4,7.5415
1776.1,9.22322
1777.8,7.0791
1779.5,7.6648
1781.2,6.52944
1782.8,5.65304
1784.5,3.46362
1786.2,4.987452
1787.9,-0.61268396
1789.6,5.01716
1791.2,1.1086
1792.9,3.11429
1794.6,-0.29306
1796.3,0.383906
1798,-2.252747
1799.6,1.89952
1801.3,-0.0869800000000001
1803,-1.163608
1804.7,-2.79712
1806.3,-3.738148
1808,-1.15148
1809.7,0.225044
1811.3,-2.6295618
1813,-0.40576
1814.7,-2.439562
1816.3,1.471668
1818,-2.0398038
1819.7,-0.330516
1821.3,-1.14594
1823,-0.517498
1824.7,-1.61212
1826.3,-2.70708
1828,-5.267466
1829.7,-1.83816
1831.3,0.35626
1833,-3.11338
1834.6,-3.68076
1836.3,-1.359162
1838,1.356136
1839.6,-1.5810192
1841.3,-1.9707
1842.9,0.906747
1844.6,-3.6505488
1846.2,-4.62212
1847.9,-0.0483353999999999
1849.5,2.02716
1851.2,1.76032
1852.8,-0.4128
1854.5,1.592772
1856.1,0.72068
1857.8,-0.47472
1859.4,1.761774
1861.1,-1.381
1862.7,-0.63874
1864.4,-1.111574
1866,-5.93548
1867.7,-4.213992
1869.3,0.73906
1871,0.14918
1872.6,-0.9699
1874.2,2.94488
1875.9,-0.0555999999999999
1877.5,-2.031572
1879.2,0
1880.8,0.0251999999999999
1882.4,-6.3428296
1884.1,-4.246974
1885.7,0.74806
1887.3,-2.53158
1889,-0.4321
1890.6,-3.271933
1892.2,-6.44668
1893.9,-0.17322
1895.5,-5.36828
1897.1,-4.62934
1898.8,-3.06654
1900.4,-1.910246
1902,-1.52004
1903.7,-1.11752
1905.3,-1.086948
1906.9,-2.9466
1908.5,-2.63974
1910.2,-1.238634
1911.8,-2.97655
1913.4,-6.08708
1915,0.359042
1916.7,-1.53528
1918.3,-4.643126
1919.9,-2.233066
1921.5,-2.948282
1923.1,-2.778348
1924.8,1.2904
1926.4,-0.883056
1928,-1.93705094
1929.6,2.939756
1931.2,-0.343914
1932.8,0.779586
1934.4,2.14912
1936.1,2.93746
1937.7,-2.5795
1939.3,0.69364
1940.9,1.498972
1942.5,-1.014638
1944.1,1.591384
1945.7,0.370822
1947.3,1.377856
1948.9,4.635778
1950.5,1.746172
1952.1,-0.0797908
1953.8,1.70486
1955.4,0.5671518
1957,-2.96304
1958.6,-0.70486
1960.2,-1.16432
1961.8,0.522988
1963.4,-1.2765712
1965,1.60668
1966.6,11.27922
1968.2,5.05102
1969.8,0.907476
1971.4,1.333916
1973,3.79558
1974.5,-0.405854
1976.1,0.564136
1977.7,-0.709768
1979.3,-3.072444
1980.9,-2.76116
1982.5,-1.33372
1984.1,-1.198662
1985.7,-1.79628
1987.3,-0.37002
1988.9,-3.65178
1990.5,0.15859
1992,-3.286368
1993.6,2.8767
1995.2,-3.42968
1996.8,1.34836
1998.4,-6.80404
2000,-2.60664
2001.6,0.77784
2003.1,-0.60336
2004.7,3.099118
2006.3,0.00895999999999999
2007.9,-2.877308
2009.5,-1.8096
2011,3.07807
2012.6,3.225158
2014.2,1.410828
2015.8,0.40878
2017.3,2.24948
2018.9,-0.227664
2020.5,1.21306
2022.1,-0.244046
2023.6,0.54334
2025.2,3.6322
2026.8,-0.43744
2028.3,0.78196
2029.9,3.19766
2031.5,1.59824
2033,0.71656
2034.6,1.36598
2036.2,-2.432532
2037.7,2.37608
2039.3,2.285812
2040.9,2.336346
2042.4,4.284128
2044,2.97866
2045.6,1.48216
2047.1,2.29918
2048.7,1.15583
2050.2,-0.17322
2051.8,0.74588
2053.4,2.386992
2054.9,2.0939386
2056.5,1.420326
2058,0.3079382
2059.6,1.17558
2061.1,4.18262
2062.7,3.52576
2064.2,4.798862
2065.8,4.56864
2067.3,2.31216
2068.9,1.80718
2070.4,1.8383
2072,-1.65886
2073.5,-3.30994
2075.1,-0.764706
2076.6,0.887942
2078.2,-0.728828
2079.7,4.13676
2081.3,4.63024
2082.8,6.74914
2084.4,6.86092
2085.9,8.26916
2087.4,6.06466
2089,7.46826
2090.5,6.3107
2092.1,5.19966
2093.6,5.365584
2095.1,5.236818
2096.7,2.70548
2098.2,6.8705
2099.7,7.84872
2101.3,7.31718
2102.8,5.9055
2104.3,9.96092
2105.9,11.126
2107.4,4.96678
2108.9,9.06788
2110.5,4.346968
2112,3.92058
2113.5,4.7681
2115.1,8.065
2116.6,6.906728
2118.1,7.95228
2119.6,9.7597
2121.2,7.8665
2122.7,8.06298
2124.2,5.03454
2125.7,3.79243
2127.3,4.722224
2128.8,9.16816
2130.3,6.93798
2131.8,10.68016
2133.3,12.98278
2134.9,22.2298
2136.4,30.7006
2137.9,36.9714
2139.4,48.9954
2140.9,58.3174
2142.4,52.4402
2144,39.0926
2145.5,22.555
2147,18.045
2148.5,12.8158
2150,8.16094
2151.5,7.47262
2153,9.1137
2154.5,2.663824
2156,5.49414
2157.6,3.295842
2159.1,3.503468
2160.6,0.77197
2162.1,0.90336
2163.6,0.141548
2165.1,-0.11709
2166.6,-3.155968
2168.1,-2.48592
2169.6,-6.03508
2171.1,1.890856
2172.6,2.711342
2174.1,1.3735
2175.6,1.49138
2177.1,-0.175172
2178.6,-0.89478
2180.1,1.591704
2181.6,-3.756
2183.1,-3.82104
2184.6,-1.995292
2186.1,0.164678
2187.5,1.8123
2189,1.097442
2190.5,2.20386
2192,1.395132
2193.5,1.7163844
2195,1.620058
2196.5,-0.46326
2198,-0.67508
2199.5,0.80288
2201,1.63731
2202.4,-0.84618
2203.9,0.282538
2205.4,-1.6443134
2206.9,0.153342
2208.4,1.371136
2209.9,3.194018
2211.3,-0.16014
2212.8,-1.29913
2214.3,-3.304124
2215.8,1.064112
2217.3,-0.145144
2218.7,-0.4965058
2220.2,0.186152
2221.7,-1.105762
2223.2,-1.638034
2224.6,2.116436
2226.1,1.5891
2227.6,-1.174002
2229.1,0.2837266
2230.5,-1.039548
2232,-1.35606
2233.5,1.69136
2234.9,0.347008
2236.4,1.61542
2237.9,2.572798
2239.3,0.18214
2240.8,1.25192
2242.3,3.493236
2243.7,-0.906714
2245.2,2.191
2246.7,1.337378
2248.1,-0.408894
2249.6,-2.5054
2251.1,4.679744
2252.5,4.29668
2254,1.9887252
2255.4,1.48908
2256.9,1.852142
2258.3,1.317136
2259.8,3.472894
2261.3,-3.49834
2262.7,-1.24572
2264.2,0.166228
2265.6,3.38938
2267.1,0.48388
2268.5,-2.198318
2270,1.49106
2271.4,1.21072
2272.9,2.48252
2274.3,0
2275.8,0.88792
2277.2,2.30486
2278.7,4.5514546
2280.1,3.387088
2281.6,1.59012
2283,2.54302
2284.5,4.69448
2285.9,0.27646
2287.4,1.954122
2288.8,1.5767
2290.2,2.431264
2291.7,4.456702
2293.1,2.66858
2294.6,0.6232194
2296,5.32382
2297.4,5.843624
2298.9,6.764654
2300.3,3.487666
2301.7,0.9567
2303.2,4.46054
2304.6,0.9630958
2306,2.584054
2307.5,3.02198
2308.9,2.00106
2310.3,4.71312
2311.8,1.62678
2313.2,6.50566
2314.6,2.68248
2316.1,4.26602
2317.5,2.97938
2318.9,3.170968
2320.3,1.84788
2321.8,7.534184
2323.2,6.71936
2324.6,12.48472
2326,15.7862
2327.5,22.2226
2328.9,27.9188
2330.3,29.5914
2331.7,28.0284
2333.2,17.28654
2334.6,12.38056
2336,7.96834
2337.4,8.06208
2338.8,4.55746
2340.2,6.238158
2341.7,5.163588
2343.1,2.6268
2344.5,5.5392
2345.9,8.07242
2347.3,1.75659
2348.7,5.324538
2350.1,1.48766
2351.6,3.84018
2353,5.039718
2354.4,1.743
2355.8,3.94172
2357.2,4.684592
2358.6,3.7492
2360,9.94246
2361.4,9.70172
2362.8,2.127852
2364.2,5.83712
2365.6,1.5917204
2367,6.24188
2368.4,3.982072
2369.8,6.109328
2371.2,7.88546
2372.6,6.99166
2374,5.246224
2375.4,3.88988
2376.8,3.5291
2378.2,2.03882
2379.6,5.80978
2381,4.09565
2382.4,3.28482
2383.8,5.91954
2385.2,3.379386
2386.6,1.121256
2388,5.83154
2389.4,5.2206
2390.8,5.12766
2392.1,2.36336
2393.5,0.396926
2394.9,4.42844
2396.3,4.1806994
2397.7,4.23922
2399.1,5.12912
2400.5,5.02914
2401.9,2.36102
2403.2,3.253424
2404.6,0.613328
2406,2.662976
2407.4,1.4963
2408.8,4.364536
2410.2,1.8559
2411.5,4.571131
2412.9,-0.26054
2414.3,2.03352
2415.7,0
2417,-0.353488
2418.4,3.58042
2419.8,-0.502872
2421.2,1.34315
2422.5,4.71902
2423.9,0.84816
2425.3,3.158
2426.7,-0.23724
2428,1.48037
2429.4,-0.459374
2430.8,2.378538
2432.1,1.76656
2433.5,3.518188
2434.9,2.70286
2436.2,2.29462
2437.6,2.579522
2439,3.029264
2440.3,1.161954
2441.7,1.8239
2443.1,1.54718
2444.4,3.12812
2445.8,1.296152
2447.2,0.193896
2448.5,3.04488
2449.9,-1.1956
2451.2,-0.24458
2452.6,2.43266
2454,-0.00853999999999999
2455.3,0.42288
2456.7,2.93367
2458,1.178692
2459.4,0.598202
2460.7,1.71342
2462.1,4.94398
2463.4,2.7572548
2464.8,3.81854
2466.1,3.60884
2467.5,5.41616
2468.8,3.7716266
2470.2,2.094254
2471.5,2.0587668
2472.9,2.553464
2474.2,2.218568
2475.6,4.07576
2476.9,4.919438
2478.3,2.5122
2479.6,4.805526
2481,3.6731
2482.3,1.47306
2483.6,3.786772
2485,0.14177
2486.3,3.2499
2487.7,5.6413984
2489,2.38008
2490.3,2.26582
2491.7,1.0784
2493,5.14328
2494.4,3.5794646
2495.7,0.74814
2497,-0.0481799999999999
2498.4,5.3399
2499.7,3.200354
2501,1.447322
2502.4,1.57656
2503.7,2.601153
2505,1.819968
2506.4,3.090146
2507.7,1.0671
2509,3.84424
2510.3,1.08077
2511.7,-1.5938
2513,1.77954
2514.3,-0.378488
2515.6,0.78752
2517,-0.40022
2518.3,2.070324
2519.6,-0.15664
2520.9,0
2522.3,0.81356
2523.6,1.19566
2524.9,-0.786666
2526.2,-0.222722
2527.5,-0.4342
2528.9,0.592732
2530.2,0.1874328
2531.5,0.1865
2532.8,-2.36078
2534.1,-0.0447399999999999
2535.4,-0.0733840000000001
2536.8,1.649864
2538.1,0.5198
2539.4,4.46988
2540.7,2.506576
2542,1.397788
2543.3,4.04266
2544.6,0.0743600000000001
2545.9,-0.15814
2547.2,-2.639714
2548.6,2.756896
2549.9,1.394614
2551.2,2.94762
2552.5,1.467054
2553.8,1.207058
2555.1,1.626148
2556.4,0.61124
2557.7,2.1447
2559,2.272522
2560.3,4.51532
2561.6,3.43454
2562.9,1.516604
2564.2,1.407506
2565.5,2.42766
2566.8,3.02768
2568.1,2.697512
2569.4,2.07302
2570.7,4.57668
2572,2.321486
2573.3,2.467932
2574.6,1.437448
2575.9,1.85539
2577.1,0.0907279999999999
2578.4,1.10364
2579.7,0.6486
2581,3.88404
2582.3,-2.51272
2583.6,-0.477869
2584.9,1.9848
2586.2,1.155152
2587.5,0.7623
2588.7,0.41956
2590,2.678934
2591.3,1.356368
2592.6,1.429442
2593.9,4.11912
2595.2,-0.37872
2596.4,1.173732
2597.7,3.61028
2599,2.2359
2600.3,1.93996
2601.6,0.866488
2602.8,0.590906
2604.1,0.603592
2605.4,3.994552
2606.7,0.864938
2608,2.49098
2609.2,0.4170558
2610.5,2.44236
2611.8,0.68943
2613,0.948988
2614.3,1.73376
2615.6,2.047788
2616.9,3.84236
2618.1,1.963774
2619.4,2.187384
2620.7,-0.524206
2621.9,2.5682008
2623.2,2.16725
2624.5,1.11484
2625.7,0.42638
2627,2.86664
2628.3,3.51694
2629.5,0
2630.8,3.568432
2632.1,1.2363
2633.3,0.62244
2634.6,1.12468
2635.8,-0.712702
2637.1,-0.578502
2638.4,-1.06836
2639.6,0.391922
2640.9,3.12076
2642.1,-0.042344
2643.4,2.186218
2644.6,0.49936
2645.9,4.392778
2647.2,-0.767448
2648.4,1.15194
2649.7,1.47896
2650.9,1.122348
2652.2,1.699634
2653.4,0.13074
2654.7,2.084418
2655.9,-1.533532
2657.2,-1.124612
2658.4,1.4478
2659.7,3.58872
2660.9,-0.937346
2662.2,2.232368
2663.4,-2.002676
2664.6,4.60756
2665.9,2.121
2667.1,1.914776
2668.4,-1.539124
2669.6,-0.83108
2670.9,0.444448
2672.1,1.98238
2673.3,0.8837029
2674.6,3.37664
2675.8,1.7886686
2677.1,2.600982
2678.3,0.941638
2679.5,5.17544
2680.8,-1.756064
2682,2.305824
2683.2,0.896808
2684.5,0.81756
2685.7,3.562212
2686.9,2.045706
2688.2,1.02336
2689.4,3.12532
2690.6,1.65438
2691.9,-4.27778
2693.1,4.85516
2694.3,-0.502946
2695.5,2.99522
2696.8,2.05918
2698,0.837512
2699.2,2.346674
2700.4,2.7871342
2701.7,3.669618
2702.9,2.75122
2704.1,0.55342
2705.3,2.332172
2706.6,2.902588
2707.8,1.579368
2709,-1.58597
2710.2,-1.059894
2711.4,0.5321442
2712.6,-1.0168842
2713.9,-1.686144
2715.1,3.208784
2716.3,-1.190088
2717.5,-0.6964
2718.7,-0.71851
2719.9,0.27958
2721.2,0.226644
2722.4,2.51966
2723.6,1.12026
2724.8,1.897166
2726,0
2727.2,3.66914
2728.4,-1.10038
2729.6,2.998152
2730.8,-0.80158
2732,0.0260114000000001
2733.3,2.52288
2734.5,2.143526
2735.7,-1.565056
2736.9,2.05848
2738.1,1.315696
2739.3,0.226538
2740.5,0.496816
2741.7,-0.625468
2742.9,-1.65114
2744.1,-0.19376
2745.3,0.739888
2746.5,-0.50356
2747.7,0.1402548
2748.9,-1.361434
2750.1,0.27052
2751.3,-1.35774
2752.5,0.306672
2753.7,-1.99202
2754.9,1.97075
2756,0.718372
2757.2,0.55886
2758.4,0.5378306
2759.6,-1.283958
2760.8,-0.38557
2762,-0.503098
2763.2,-0.14534
2764.4,-0.2671
2765.6,1.626464
2766.8,-3.302308
2767.9,-0.041154
2769.1,-1.97796
2770.3,-1.92839
2771.5,1.820526
2772.7,-2.97824
2773.9,-0.9547
2775.1,-1.77228
2776.2,-2.420856
2777.4,0.857944
2778.6,1.070786
2779.8,-2.34396
2781,-2.905284
2782.1,-2.843956
2783.3,-1.5293824
2784.5,-1.42896
2785.7,-0.18474
2786.8,-2.04417
2788,-0.29732
2789.2,-1.196044
2790.4,-2.124156
2791.5,-0.567156
2792.7,0.571942
2793.9,-3.18497
2795.1,-1.627006
2796.2,-0.53268
2797.4,-3.35018
2798.6,-0.701
2799.7,-3.51626
2800.9,-0.858224
2802.1,2.09686
2803.2,-1.23732
2804.4,0.135514
2805.6,-0.6980688
2806.7,-0.07354
2807.9,0.684214
2809.1,-2.67686
2810.2,-1.47514
2811.4,-0.81228
2812.6,-4.725292
2813.7,1.609878
2814.9,-0.31502
2816,-1.12928
2817.2,-2.2272302
2818.4,0
2819.5,-1.3315
2820.7,0.86362
2821.8,1.065542
2823,-0.397278
2824.1,2.650608
2825.3,1.81692
2826.4,-0.3963
2827.6,1.50186
2828.7,1.221516
2829.9,0.5745564
2831,-0.86526
2832.2,-2.37946
2833.3,0.572374
2834.5,-1.4325
2835.6,0.32638
2836.8,-0.341726
2837.9,-2.05694
2839.1,2.90472
2840.2,-3.39978
2841.4,1.4877264
2842.5,-2.370954
2843.7,-1.662702
2844.8,-2.04444
2845.9,-0.5645
2847.1,-2.40708
2848.2,-2.36212
2849.4,-0.118434
2850.5,0.232358
2851.7,-1.153682
2852.8,-1.890568
2853.9,0.52388
2855.1,-0.503852
2856.2,-1.082106
2857.3,-4.359536
2858.5,-1.35162
2859.6,0.5545
2860.7,-1.3892294
2861.9,-0.52401
2863,-1.841266
2864.1,-0.141064
2865.3,-1.86854
2866.4,-5.184012
2867.5,-0.17068
2868.7,-1.723974
2869.8,-0.578444
2870.9,-1.131598
2872,-2.75972
2873.2,-2.82664
2874.3,-0.923882
2875.4,-3.20888
2876.5,-2.4769
2877.7,-0.23125
2878.8,-2.29678
2879.9,0.678306
2881,-0.638986
2882.2,0.40116
2883.3,-1.0712
2884.4,0.78232
2885.5,-1.903568
2886.6,1.04754
2887.8,-0.90828
2888.9,-3.68112
2890,-1.118662
2891.1,2.02208
2892.2,0.609982
2893.3,2.19948
2894.4,1.066778
2895.6,1.96385
2896.7,-0.32548
2897.8,-2.128944
2898.9,-2.2917966
2900,0.77034
2901.1,-0.146226
2902.2,-0.272618
2903.3,1.7647756
2904.4,-2.402084
2905.6,-0.341516
2906.7,-3.589096
2907.8,0.606062
2908.9,1.33676
2910,1.935924
2911.1,1.020284
2912.2,-0.278946
2913.3,1.676244
2914.4,-0.644652
2915.5,5.28682
2916.6,0.1628824
2917.7,2.89194
2918.8,-0.64298
2919.9,0.0719699999999998
2921,2.54384
2922.1,2.316638
2923.2,6.4402
2924.3,6.165776
2925.4,3.49274
2926.5,5.4809
2927.6,5.35432
2928.7,3.07014
2929.8,5.74808
2930.8,5.520178
2931.9,6.30297
2933,8.22296
2934.1,5.37406
2935.2,5.19442
2936.3,6.47234
2937.4,7.0648
2938.5,7.30038
2939.6,8.681956
2940.6,11.41618
2941.7,6.607632
2942.8,5.99996
2943.9,7.01844
2945,8.852
2946.1,9.56132
2947.2,9.77972
2948.2,10.0059
2949.3,9.88482
2950.4,11.66612
2951.5,11.38344
2952.6,9.9059
2953.6,10.36712
2954.7,10.50742
2955.8,9.33895
2956.9,12.06488
2957.9,14.86396
2959,10.79692
2960.1,12.24704
2961.2,9.33516
2962.2,13.233
2963.3,13.69172
2964.4,15.72432
2965.5,12.56956
2966.5,11.176274
2967.6,11.79276
2968.7,12.51978
2969.7,11.331804
2970.8,14.79984
2971.9,18.0838
2973,14.74576
2974,17.8161
2975.1,13.9581
2976.2,16.27642
2977.2,18.24968
2978.3,13.8665
2979.3,16.12898
2980.4,18.474
2981.5,17.7814
2982.5,15.97012
2983.6,17.5114
2984.7,17.14098
2985.7,17.0144
2986.8,20.71292
2987.8,17.94412
2988.9,20.4567
2989.9,22.267
2991,23.6094
2992.1,21.45
2993.1,22.46166
2994.2,19.9774
2995.2,25.5526
2996.3,25.3142
2997.3,20.0036
2998.4,23.813
2999.4,26.98
3000.5,27.3156
3001.5,27.036
3002.6,24.9094
3003.6,26.4582
3004.7,26.9064
3005.7,27.5838
3006.8,31.1706
3007.8,30.2404
3008.9,28.805
3009.9,28.3734
3011,32.5076
3012,33.3192
3013,35.7902
3014.1,35.5196
3015.1,38.0356
3016.2,37.3384
3017.2,34.3474
3018.2,35.8366
3019.3,35.7314
3020.3,38.693
3021.4,38.224
3022.4,37.7998
3023.4,39.3832
3024.5,40.1682
3025.5,41.0856
3026.5,41.8838
3027.6,45.0292
3028.6,47.3552
3029.6,44.6672
3030.7,48.2816
3031.7,48.5922
3032.7,44.7674
3033.8,48.744
3034.8,52.3784
3035.8,52.1252
3036.9,55.5354
3037.9,53.5922
3038.9,49.829
3039.9,52.852
3041,54.4684
3042,57.691
3043,57.3202
3044,58.4392
3045.1,60.2648
3046.1,59.4854
3047.1,64.3858
3048.1,64.8816
3049.2,63.357
3050.2,67.9646
3051.2,61.0024
3052.2,64.7702
3053.2,67.938
3054.3,69.4872
3055.3,68.9582
3056.3,71.395
3057.3,73.2934
3058.3,75.8866
3059.3,74.5516
3060.3,77.8528
3061.4,76.7812
3062.4,77.354
3063.4,73.063
3064.4,76.4398
3065.4,81.885
3066.4,81.082
3067.4,84.0426
3068.4,83.1728
3069.5,82.912
3070.5,85.529
3071.5,88.4988
3072.5,91.1502
3073.5,89.2
3074.5,91.8354
3075.5,92.3988
3076.5,93.6508
3077.5,91.5122
3078.5,95.275
3079.5,98.4568
3080.5,100.0592
3081.5,98.4174
3082.5,99.9668
3083.5,101.8996
3084.5,103.3102
3085.5,103.5472
3086.5,105.14
3087.5,106.852
3088.5,109.1634
3089.5,107.051
3090.5,110.416
3091.5,108.86
3092.5,114.184
3093.5,116.146
3094.5,117.478
3095.5,116.882
3096.4,119.136
3097.4,118.056
3098.4,121.61
3099.4,120.428
3100.4,128.768
3101.4,125.26
3102.4,129.718
3103.4,124.844
3104.4,128.426
3105.3,132.246
3106.3,137.036
3107.3,136.124
3108.3,139.734
3109.3,136.778
3110.3,140.928
3111.3,143.172
3112.2,142.946
3113.2,145.574
3114.2,144.44
3115.2,148.246
3116.2,146.2
3117.1,150.568
3118.1,156.134
3119.1,151.056
3120.1,157.04
3121,154.994
3122,154.108
3123,159.256
3124,161.666
3124.9,163.342
3125.9,160.678
3126.9,171.2
3127.9,168.396
3128.8,171.258
3129.8,170.394
3130.8,175.126
3131.7,174.638
3132.7,175.578
3133.7,175.326
3134.7,179.084
3135.6,181.034
3136.6,182.53
3137.6,182.026
3138.5,181.942
3139.5,183.036
3140.4,185.946
3141.4,187.59
3142.4,186.496
3143.3,188.54
3144.3,191.748
3145.3,191.54
3146.2,197.34
3147.2,195.304
3148.1,196.336
3149.1,198.574
3150.1,195.882
3151,201.31
3152,202.428
3152.9,198.576
3153.9,205.658
3154.8,201.922
3155.8,198.918
3156.7,204.668
3157.7,206.344
3158.6,206.11
3159.6,204.184
3160.6,206.44
3161.5,206.552
3162.5,209.954
3163.4,210.45
3164.4,206.9
3165.3,207.05
3166.2,213.42
3167.2,215.24
3168.1,211.372
3169.1,210.912
3170,216.32
3171,216.424
3171.9,212.244
3172.9,214.292
3173.8,218.756
3174.7,217.274
3175.7,217.534
3176.6,214.706
3177.6,219.662
3178.5,215.836
3179.5,218.044
3180.4,213.098
3181.3,219.584
3182.3,217.742
3183.2,215.578
3184.1,214.378
3185.1,220.696
3186,212.594
3186.9,219.462
3187.9,220.342
3188.8,218.954
3189.7,218.668
3190.7,218
3191.6,215.994
3192.5,215.502
3193.5,214.996
3194.4,215.292
3195.3,216.924
3196.3,218.324
3197.2,219.378
3198.1,214.62
3199,215.078
3200,215.386
3200.9,211.314
3201.8,215.318
3202.7,210.164
3203.7,212.53
3204.6,212.608
3205.5,208.566
3206.4,206.764
3207.3,204.564
3208.3,207.55
3209.2,199.99
3210.1,199.494
3211,198.8
3211.9,198.88
3212.9,196.29
3213.8,191.94
3214.7,193.216
3215.6,194.674
3216.5,191.13
3217.4,189.478
3218.4,190.03
3219.3,189.332
3220.2,184.542
3221.1,181.976
3222,179.192
3222.9,176.928
3223.8,173.85
3224.7,176.14
3225.6,171.884
3226.6,170.642
3227.5,165.85
3228.4,164.282
3229.3,161.828
3230.2,162.81
3231.1,157.022
3232,154.97
3232.9,150.172
3233.8,146.62
3234.7,146.102
3235.6,144.25
3236.5,140.318
3237.4,140.89
3238.3,136.846
3239.2,131.812
3240.1,126.462
3241,126.53
3241.9,123.468
3242.8,120.102
3243.7,109.01
3244.6,114.544
3245.5,105.5632
3246.4,100.834
3247.3,95.6052
3248.2,85.939
3249.1,79.6602
3250,70.8318
3250.9,63.4244
3251.8,57.4098
3252.7,47.671
3253.5,35.9748
3254.4,22.8584
3255.3,8.98394
3256.2,-6.21522
