250.34,-6.104813
252.57,0.14062
254.8,0
257.03,-1.06772
259.26,1.51814
261.48,6.4262
263.71,14.08796
265.94,-3.536686
268.16,2.86072
270.39,-0.447260000000001
272.61,1.645946
274.84,2.35854
277.06,-1.280976
279.28,6.1898
281.51,5.12618
283.73,3.32577
285.95,1.466294
288.17,3.02082
290.39,-0.0945600000000001
292.61,3.63878
294.83,-3.27072
297.05,3.094404
299.27,2.0991
301.48,4.662688
303.7,11.57444
305.91,9.61548
308.13,8.61962
310.35,8.82642
312.56,6.10926
314.77,5.79602
316.99,0.39664
319.2,5.45988
321.41,4.6674
323.62,2.29977
325.83,-0.0602882
328.04,1.3419162
330.25,-3.1552
332.46,-0.3009
334.67,-4.045126
336.88,-1.50552
339.08,-4.073128
341.29,-1.19318
343.5,-4.07694
345.7,4.31996
347.91,6.86412
350.11,16.814
352.31,26.9934
354.52,32.2378
356.72,30.4788
358.92,30.7098
361.12,30.1714
363.32,29.225
365.52,23.3224
367.72,24.036
369.92,17.46666
372.12,26.018
374.32,47.0766
376.51,84.6156
378.71,108.8624
380.9,92.1508
383.1,61.3958
385.29,24.96214
387.49,14.13228
389.68,8.482684
391.87,-0.426882
394.07,0.63698
396.26,-0.56574
398.45,2.261882
400.64,9.9714
402.83,14.64214
405.02,17.59198
407.21,36.6176
409.39,58.2998
411.58,133.13
413.77,361.922
415.95,639.17
418.14,700
420.32,484.144
422.51,242.458
424.69,124.758
426.87,90.5302
429.06,89.881
431.24,77.4362
433.42,57.9586
435.6,33.3664
437.78,14.88824
439.96,3.67512
442.14,-0.0662716
444.31,7.920082
446.49,21.2042
448.67,34.8306
450.84,28.9322
453.02,12.41606
455.19,-0.0661139999999994
457.37,-2.393162
459.54,-2.777122
461.71,-4.72456
463.89,-4.737102
466.06,-2.3059
468.23,-3.25082
470.4,-7.80704
472.57,-8.8687
474.74,-9.32484
476.91,-14.83604
479.07,-14.86218
481.24,-0.519916
483.41,1.877732
485.57,1.244502
487.74,7.114181
489.9,0.90326
492.07,2.33606
494.23,-1.171546
496.4,-9.71578
498.56,-7.43654
500.72,-10.72956
502.88,-11.50838
505.04,-8.0434
507.2,-10.83012
509.36,-9.9027
511.52,-8.9964
513.68,-9.12934
515.83,-5.11358
517.99,-3.74216
520.14,-9.45674
522.3,-8.965
524.45,-0.0319959999999998
526.61,-3.2901
528.76,-1.990314
530.91,1.43594
533.07,-2.23938
535.22,2.188508
537.37,6.3983
539.52,8.0943
541.67,8.77392
543.82,9.7017
545.97,3.88888
548.11,3.18646
550.26,-0.46353
552.41,-1.53704
554.55,0.2554
556.7,0.04528
558.84,3.00276
560.98,5.2195
563.13,8.81614
565.27,12.77628
567.41,9.5619
569.55,20.471
571.69,38.0972
573.83,87.4958
575.97,123.368
578.11,125.94
580.25,90.135
582.39,63.5844
584.52,50.8878
586.66,52.9952
588.79,53.3352
590.93,34.1206
593.06,21.7142
595.19,24.3478
597.33,14.7226
599.46,10.70482
601.59,9.60542
603.72,5.1683
605.85,8.26208
607.98,-0.0699552
610.11,8.0335
612.24,6.34557
614.36,5.73496
616.49,-0.863636
618.62,1.994492
620.74,3.058003
622.87,0.62032
624.99,0.063376
627.11,-0.527714
629.24,-3.476338
631.36,-5.0984
633.48,0.4720188
635.6,-0.50358
637.72,2.72508
639.84,-3.240258
641.96,-0.0499072
644.08,2.57314
646.2,3.13518
648.31,0.28028
650.43,1.54628
652.54,-2.90148
654.66,-3.6213724
656.77,0.33878
658.89,0.97068
661,0.7659
663.11,9.0934
665.22,10.28122
667.33,11.88188
669.44,8.35898
671.55,11.04736
673.66,23.3044
675.77,26.039
677.88,32.1082
679.98,40.372
682.09,53.0704
684.2,63.9074
686.3,73.0268
688.4,81.5924
690.51,95.668
692.61,104.8446
694.71,114.272
696.81,120.708
698.92,122.804
701.02,130.162
703.11,146.216
705.21,150.488
707.31,158.296
709.41,158.378
711.51,159.502
713.6,146.562
715.7,141.192
717.79,124.554
719.89,112.798
721.98,100.2422
724.07,80.4378
726.16,72.9544
728.25,63.5466
730.35,55.2894
732.44,57.798
734.52,62.4232
736.61,67.381
738.7,81.4068
740.79,107.062
742.87,133.268
744.96,173.462
747.05,220.216
749.13,252.6
751.21,248.812
753.3,221.13
755.38,167.606
757.46,125.012
759.54,86.3996
761.62,60.3716
763.7,41.4728
765.78,30.7176
767.86,20.3252
769.94,11.5284
772.01,6.44008
774.09,-1.562276
776.17,4.314714
778.24,-0.202264
780.32,1.50082
782.39,3.33348
784.46,-0.888502
786.53,7.02868
788.61,3.950026
790.68,6.772136
792.75,6.62906
794.82,5.785292
796.89,6.9022
798.95,2.455578
801.02,-0.21434
803.09,0.74378
805.15,3.3405262
807.22,3.9974768
809.28,6.44038
811.35,11.86134
813.41,12.09646
815.47,12.94224
817.53,6.687312
819.6,6.76494758
821.66,4.13408
823.72,2.967338
825.78,-3.239866
827.83,0.176588
829.89,-0.37382
831.95,3.77806
834,1.645118
836.06,4.08014
838.12,5.56282
840.17,2.23496
842.22,0.52377
844.28,-1.47683
846.33,1.0741094
848.38,5.68762
850.43,5.156588
852.48,3.277094
854.53,-0.446808
856.58,5.49972
858.63,7.607258
860.67,8.77756
862.72,8.7827
864.77,4.55948
866.81,4.924585
868.86,0.457242
870.9,-0.4176294
872.94,-0.43958
874.98,0.119086
877.03,-0.144086
879.07,3.45066
881.11,4.56208
883.15,2.34548
885.19,2.77503
887.22,1.6097
889.26,3.47998
891.3,0.945116
893.33,-1.516282
895.37,0.223738
897.4,-1.33868
899.44,0
901.47,-0.457008
903.5,2.69976
905.54,3.1174
907.57,7.78716
909.6,2.4464
911.63,-0.82724
913.66,6.92288
915.68,5.003402
917.71,0.56974
919.74,1.04914
921.76,1.697196
923.79,-2.98481
925.82,3.2231
927.84,7.67728
929.86,7.01842
931.89,4.03668
933.91,8.96836
935.93,13.06702
937.95,8.7421
939.97,7.56896
941.99,4.29454
944.01,6.22814
946.02,2.57464
948.04,5.524682
950.06,1.62476
952.07,1.946818
954.09,9.9317
956.1,6.9363
958.12,6.422764
960.13,8.1095
962.14,3.52956
964.15,4.13556
966.16,4.42982
968.17,-0.4835
970.18,0.043926
972.19,0.39596
974.2,1.79604
976.2,4.88328
978.21,4.7651
980.22,8.110834
982.22,5.59576
984.22,4.50764
986.23,11.93948
988.23,3.09358
990.23,9.94108
992.23,10.59714
994.24,6.114394
996.23,5.760902
998.23,8.27978
1000.2,7.710952
1002.2,13.66454
1004.2,11.7958
1006.2,10.12726
1008.2,20.38454
1010.2,18.7148
1012.2,20.0736
1014.2,17.1292
1016.2,16.6676
1018.2,18.0624
1020.2,21.1904
1022.2,21.5182
1024.2,24.2214
1026.1,29.0232
1028.1,27.4184
1030.1,29.4506
1032.1,36.2866
1034.1,39.6996
1036.1,42.017
1038.1,36.3546
1040.1,37.9576
1042,39.49
1044,37.2378
1046,41.5048
1048,44.792
1050,46.7376
1051.9,49.0114
1053.9,49.1426
1055.9,47.0782
1057.9,42.3358
1059.9,42.8152
1061.8,44.5892
1063.8,39.7694
1065.8,35.6288
1067.8,33.1888
1069.7,32.9474
1071.7,33.1884
1073.7,32.605
1075.6,29.7886
1077.6,21.0654
1079.6,19.1884
1081.5,18.44098
1083.5,12.22266
1085.5,9.0952
1087.5,12.4607
1089.4,5.345646
1091.4,5.407576
1093.3,3.88208
1095.3,5.91228
1097.3,4.398654
1099.2,4.365186
1101.2,5.62488
1103.2,4.118602
1105.1,-0.14864
1107.1,1.8604578
1109,0.2109
1111,-2.117982
1113,-0.298544
1114.9,0.800932
1116.9,1.927232
1118.8,-4.528866
1120.8,2.44298
1122.7,6.249292
1124.7,5.472414
1126.6,3.1125
1128.6,3.92748
1130.5,4.363052
1132.5,4.51038
1134.4,6.183494
1136.4,11.265977
1138.3,9.12196
1140.3,11.83062
1142.2,9.79046
1144.2,9.97862
1146.1,16.0962
1148.1,10.96044
1150,18.9416
1151.9,18.01958
1153.9,24.2678
1155.8,23.4874
1157.8,20.8272
1159.7,25
1161.6,28.9038
1163.6,33.922
1165.5,38.2062
1167.5,38.944
1169.4,44.5852
1171.3,51.5504
1173.3,53.1488
1175.2,56.2344
1177.1,61.3784
1179.1,70.9716
1181,76.2046
1182.9,85.6552
1184.9,89.909
1186.8,99.8288
1188.7,110.742
1190.6,117.502
1192.6,127.19
1194.5,139.356
1196.4,148.822
1198.4,156.396
1200.3,165.218
1202.2,171.142
1204.1,183.306
1206,189.51
1208,198.266
1209.9,204.58
1211.8,212.332
1213.7,219.764
1215.6,219.058
1217.6,220.242
1219.5,218.238
1221.4,216.546
1223.3,210.124
1225.2,206.058
1227.1,200.288
1229.1,196.29
1231,186.084
1232.9,178.582
1234.8,170.704
1236.7,164.862
1238.6,157.294
1240.5,148.84
1242.4,138.758
1244.3,135.356
1246.2,126.694
1248.1,119.102
1250.1,114.614
1252,109.844
1253.9,103.3358
1255.8,103.651
1257.7,96.9006
1259.6,100.8652
1261.5,96.014
1263.4,93.0894
1265.3,98.6126
1267.2,101.662
1269.1,100.6464
1271,104.462
1272.9,105.222
1274.8,107.2576
1276.6,101.6014
1278.5,96.8762
1280.4,92.7082
1282.3,85.9722
1284.2,79.1114
1286.1,75.708
1288,67.9924
1289.9,62.0632
1291.8,55.5672
1293.7,50.3082
1295.6,49.9704
1297.4,46.689
1299.3,45.6798
1301.2,45.827
1303.1,43.511
1305,45.4376
1306.9,39.963
1308.7,42.5244
1310.6,39.3222
1312.5,37.5134
1314.4,37.2178
1316.3,40.1226
1318.1,37.4596
1320,39.3224
1321.9,34.8374
1323.8,37.4044
1325.7,38.8916
1327.5,43.4654
1329.4,42.7168
1331.3,42.7382
1333.1,47.6032
1335,47.7102
1336.9,50.312
1338.8,56.0986
1340.6,57.268
1342.5,62.4344
1344.4,71.3802
1346.2,80.2774
1348.1,90.5202
1350,99.8792
1351.8,98.7628
1353.7,105.9482
1355.6,103.0324
1357.4,103.5116
1359.3,101.5046
1361.1,102.138
1363,108.53
1364.9,118.522
1366.7,127.32
1368.6,139.73
1370.4,156.884
1372.3,181.83
1374.2,202.624
1376,238.76
1377.9,281.362
1379.7,319.012
1381.6,351.468
1383.4,363.416
1385.3,350.788
1387.1,325.502
1389,297.73
1390.8,280.034
1392.7,275.016
1394.5,285.178
1396.4,302.464
1398.2,316.672
1400.1,322.954
1401.9,313.994
1403.8,290.492
1405.6,251.716
1407.4,214.978
1409.3,175.524
1411.1,149.95
1413,120.364
1414.8,107.496
1416.6,93.488
1418.5,77.6852
1420.3,65.9706
1422.2,55.8838
1424,51.0278
1425.8,43.0384
1427.7,37.6402
1429.5,34.8846
1431.3,27.6538
1433.2,24.2554
1435,19.4798
1436.8,18.2088
1438.7,16.1788
1440.5,11.71612
1442.3,7.1949
1444.1,11.95864
1446,4.7745762
1447.8,4.848216
1449.6,2.497934
1451.4,1.721188
1453.3,0.7835758
1455.1,-0.0280139999999999
1456.9,0.0133620000000001
1458.7,-1.750628
1460.6,-2.151864
1462.4,-5.75474
1464.2,-2.75792
1466,-7.33888
1467.8,-7.27786
1469.6,-10.10702
1471.5,-6.4565
1473.3,-7.46924
1475.1,-12.01758
1476.9,-10.8995
1478.7,-8.29036
1480.5,-8.00326
1482.4,-9.74542
1484.2,-12.09852
1486,-7.08488
1487.8,-8.48806
1489.6,-11.25634
1491.4,-10.65748
1493.2,-7.64122
1495,-7.14998
1496.8,-7.88516
1498.6,-5.7545
1500.4,-9.9513
1502.2,-12.856
1504,-6.73164
1505.8,-6.818774
1507.6,-6.17238
1509.4,-4.280266
1511.2,-7.109928
1513,-5.51502
1514.8,-5.04758
1516.6,-6.163148
1518.4,-3.742946
1520.2,-3.49244
1522,-4.97724
1523.8,-4.993526
1525.6,-4.067098
1527.4,-2.67848
1529.2,-5.71326
1531,-2.16068
1532.8,-3.94802
1534.6,1.35186
1536.4,-1.145202
1538.2,0.637324
1539.9,3.18612
1541.7,1.786232
1543.5,8.287444
1545.3,7.73488
1547.1,11.54256
1548.9,14.61802
1550.7,23.821
1552.4,30.4026
1554.2,32.1
1556,38.419
1557.8,37.3956
1559.6,32.0898
1561.3,36.93
1563.1,38.0766
1564.9,43.1308
1566.7,43.4574
1568.4,49.9968
1570.2,57.5132
1572,60.057
1573.8,62.9184
1575.5,70.2182
1577.3,76.3274
1579.1,77.2756
1580.9,86.4188
1582.6,96.6462
1584.4,105.022
1586.2,110.872
1587.9,117.112
1589.7,121.68
1591.5,131.244
1593.2,143.02
1595,142.518
1596.8,155.206
1598.5,162.386
1600.3,173.094
1602,183.152
1603.8,188.656
1605.6,203.474
1607.3,212.996
1609.1,224.912
1610.8,234.94
1612.6,239.988
1614.4,252.642
1616.1,259
1617.9,265.842
1619.6,277.764
1621.4,283.28
1623.1,294.84
1624.9,298.128
1626.6,308.82
1628.4,312.886
1630.1,325.014
1631.9,329.566
1633.6,332.166
1635.4,339.564
1637.1,337.19
1638.9,342.642
1640.6,345.302
1642.4,349.372
1644.1,350.004
1645.8,349.156
1647.6,354.81
1649.3,352.898
1651.1,351.718
1652.8,348.724
1654.6,351.752
1656.3,350.26
1658,345.298
1659.8,343.432
1661.5,340.18
1663.2,342.97
1665,336.28
1666.7,337.198
1668.4,332.292
1670.2,335.326
1671.9,332.776
1673.6,331.694
1675.4,331.114
1677.1,330.894
1678.8,330.302
1680.5,332.392
1682.3,335.212
1684,333.164
1685.7,339.776
1687.5,346.78
1689.2,353.358
1690.9,360.666
1692.6,368.708
1694.3,375.16
1696.1,384.12
1697.8,397.492
1699.5,404.976
1701.2,420.508
1702.9,425.786
1704.7,435.618
1706.4,445.9
1708.1,453.46
1709.8,459.314
1711.5,463.08
1713.2,470.924
1714.9,469.658
1716.7,468.32
1718.4,463.136
1720.1,455.442
1721.8,447.008
1723.5,436.568
1725.2,427.424
1726.9,419.326
1728.6,407.608
1730.3,392.848
1732,382.26
1733.7,362.954
1735.4,349.594
1737.1,323.874
1738.8,300.978
1740.6,280.34
1742.3,254.24
1744,227.994
1745.7,205.19
1747.3,182.102
1749,160.776
1750.7,142.552
1752.4,125.698
1754.1,110.512
1755.8,93.0672
1757.5,82.625
1759.2,72.6416
1760.9,60.6708
1762.6,52.785
1764.3,46.9168
1766,38.1198
1767.7,37.7268
1769.4,32.0428
1771.1,27.5826
1772.7,24.663
1774.4,20.9234
1776.1,19.8432
1777.8,15.2598
1779.5,8.33424
1781.2,11.96702
1782.8,8.0529
1784.5,6.55554
1786.2,4.7885
1787.9,-3.4147
1789.6,6.41074
1791.2,3.42634
1792.9,2.9816886
1794.6,-1.027686
1796.3,1.354162
1798,-4.416826
1799.6,-2.601456
1801.3,-2.29278
1803,-6.17617
1804.7,-5.10872
1806.3,-8.93938
1808,-6.86758
1809.7,-5.07046
1811.3,-6.19195
1813,-5.37378
1814.7,-3.18617
1816.3,-7.3741
1818,-4.0879484
1819.7,-6.033998
1821.3,-4.07022
1823,-7.4265
1824.7,-5.4698
1826.3,-5.40218
1828,-5.89862
1829.7,-7.33886
1831.3,-5.16656
1833,-2.89356
1834.6,-2.427558
1836.3,-4.18204
1838,-5.329948
1839.6,-5.08906
1841.3,-1.802418
1842.9,-2.16702
1844.6,-4.71274
1846.2,-3.29266
1847.9,-4.82948
1849.5,-3.31506
1851.2,-0.701556
1852.8,-5.084186
1854.5,-2.948554
1856.1,-1.49288
1857.8,-2.89164
1859.4,-2.37068
1861.1,-2.27824
1862.7,-5.67892
1864.4,-0.43456
1866,-2.390648
1867.7,-1.05753
1869.3,-2.68475
1871,-3.04514
1872.6,-0.82458
1874.2,2.57298
1875.9,-2.04377
1877.5,-0.480232
1879.2,0
1880.8,-1.42758
1882.4,-4.67184
1884.1,-3.36898
1885.7,-3.287382
1887.3,-4.71854
1889,-2.93332
1890.6,-2.00691
1892.2,-2.71418
1893.9,-4.96364
1895.5,-4.83262
1897.1,-1.39145
1898.8,1.87273
1900.4,-5.20956
1902,-0.5085952
1903.7,-0.436922
1905.3,-4.263296
1906.9,-1.782462
1908.5,-2.04284
1910.2,-2.4927
1911.8,-4.03804
1913.4,-5.59026
1915,-4.36408
1916.7,-5.33776
1918.3,-5.6606
1919.9,-2.009514
1921.5,-2.30672
1923.1,-2.6779
1924.8,-4.462146
1926.4,-4.07888
1928,-1.08124
1929.6,-5.02204
1931.2,-0.7676444
1932.8,-0.27354
1934.4,-3.011886
1936.1,-1.9916894
1937.7,-2.777912
1939.3,1.006014
1940.9,-2.43197
1942.5,-0.95748
1944.1,-2.62388
1945.7,-3.068692
1947.3,1.432118
1948.9,-1.24025
1950.5,-0.35226
1952.1,0.015886
1953.8,-0.190408
1955.4,-1.32142
1957,-0.482246
1958.6,-1.192494
1960.2,-2.8291942
1961.8,-1.00298
1963.4,1.63664
1965,-0.14374
1966.6,1.073826
1968.2,-0.6402952
1969.8,0.416598
1971.4,-2.297648
1973,-2.98646
1974.5,-0.689
1976.1,-1.79276
1977.7,-0.6070898
1979.3,-0.5164
1980.9,-2.72791
1982.5,-2.64906
1984.1,1.085134
1985.7,-0.371004
1987.3,-0.39664
1988.9,-1.31694
1990.5,-1.824196
1992,-2.384736
1993.6,-1.764162
1995.2,-0.26988
1996.8,-1.283302
1998.4,-2.0866
2000,-0.96424
2001.6,-2.18022
2003.1,0.45208
2004.7,-0.57954
2006.3,-0.440446
2007.9,-4.92944
2009.5,1.15308
2011,1.216675
2012.6,-0.82708
2014.2,1.428192
2015.8,-1.84658
2017.3,-0.81282
2018.9,0.09962
2020.5,-0.529142
2022.1,0.917584
2023.6,0.636998
2025.2,0.83626
2026.8,0.0187000000000001
2028.3,2.22442
2029.9,3.3208066
2031.5,1.35914
2033,0.986258
2034.6,-0.670352
2036.2,1.65066
2037.7,3.42394
2039.3,1.32292
2040.9,3.72156
2042.4,1.2408572
2044,0.88968
2045.6,1.53365
2047.1,0.1635228
2048.7,1.648296
2050.2,-0.29768
2051.8,1.310848
2053.4,0.096278
2054.9,-0.664898
2056.5,2.2140824
2058,1.126588
2059.6,0.206094
2061.1,3.717
2062.7,1.72992
2064.2,1.652546
2065.8,2.906996
2067.3,2.84152
2068.9,0.724734
2070.4,1.470042
2072,-1.736672
2073.5,0.33034
2075.1,2.740306
2076.6,-1.32523
2078.2,1.0948774
2079.7,0.484884
2081.3,4.19234
2082.8,5.36072
2084.4,4.38502
2085.9,2.799894
2087.4,3.769696
2089,3.349914
2090.5,6.32514
2092.1,4.58901
2093.6,3.996208
2095.1,5.8604
2096.7,5.70034
2098.2,5.838744
2099.7,5.91222
2101.3,5.86012
2102.8,5.15648
2104.3,3.637974
2105.9,7.27016
2107.4,8.14348
2108.9,5.868116
2110.5,7.239604
2112,4.59275
2113.5,4.279632
2115.1,7.6991
2116.6,2.9765
2118.1,5.2072
2119.6,8.07648
2121.2,7.5891
2122.7,8.31044
2124.2,5.48748
2125.7,6.69978
2127.3,9.12442
2128.8,11.61916
2130.3,16.6796
2131.8,25.6406
2133.3,40.9414
2134.9,65.7666
2136.4,91.5602
2137.9,104.4448
2139.4,92.1724
2140.9,70.0406
2142.4,48.0636
2144,29.4924
2145.5,17.3334
2147,15.7162
2148.5,12.85196
2150,9.23568
2151.5,7.02636
2153,4.8535486
2154.5,3.96974
2156,3.936602
2157.6,0.8462172
2159.1,-0.97729
2160.6,-1.27363
2162.1,-0.734126
2163.6,-1.489082
2165.1,1.24806
2166.6,-4.00848
2168.1,-3.86382
2169.6,-6.86338
2171.1,-3.497396
2172.6,0.71581
2174.1,-1.840356
2175.6,-1.062242
2177.1,-2.380354
2178.6,-2.433472
2180.1,-1.845232
2181.6,-4.00711
2183.1,-6.25276
2184.6,-1.81454
2186.1,-4.265332
2187.5,-3.644908
2189,-4.3281132
2190.5,-3.34053
2192,-2.444964
2193.5,-5.0252
2195,-2.91676
2196.5,-4.28354
2198,-1.64834
2199.5,-4.25604
2201,-7.46012
2202.4,-4.5133952
2203.9,-4.2003266
2205.4,-5.051614
2206.9,-5.81718
2208.4,-2.901452
2209.9,-4.1829
2211.3,-5.155666
2212.8,-3.860356
2214.3,-1.83262
2215.8,-3.39843
2217.3,-4.75142
2218.7,-2.78912
2220.2,-5.37086
2221.7,0.25752
2223.2,-3.93592
2224.6,-1.4095586
2226.1,-1.8327
2227.6,-2.02566
2229.1,-2.527132
2230.5,-1.470274
2232,-1.370368
2233.5,-1.6715746
2234.9,-1.146652
2236.4,-2.1499658
2237.9,1.3414
2239.3,-1.797744
2240.8,-2.688344
2242.3,0.993518
2243.7,1.471784
2245.2,2.02814
2246.7,2.13706
2248.1,-0.18254
2249.6,-2.42398
2251.1,1.75618
2252.5,0.63002
2254,-2.54796
2255.4,3.119414
2256.9,0.591392
2258.3,3.38338
2259.8,-1.036626
2261.3,0.24432
2262.7,2.1216
2264.2,0.576906
2265.6,0.15502
2267.1,-0.587248
2268.5,0.43668
2270,2.51882
2271.4,-2.0564948
2272.9,3.21342
2274.3,0
2275.8,0.915848
2277.2,2.21034
2278.7,2.29411
2280.1,-0.351075
2281.6,-1.495734
2283,1.9137
2284.5,0.0244800000000001
2285.9,1.66727
2287.4,0.54418
2288.8,-0.99514
2290.2,0.0480122000000002
2291.7,3.95006
2293.1,-0.258332
2294.6,-5.09458
2296,4.396932
2297.4,3.02728
2298.9,2.70582
2300.3,0.232346
2301.7,2.186436
2303.2,-1.278964
2304.6,1.371408
2306,-0.2097986
2307.5,0.38082
2308.9,0.892098
2310.3,0.47532
2311.8,1.563176
2313.2,1.0712
2314.6,1.145658
2316.1,-0.6588956
2317.5,0.6759354
2318.9,1.248064
2320.3,-0.027754
2321.8,4.780628
2323.2,8.30544
2324.6,10.64512
2326,16.1576
2327.5,23.624
2328.9,28.9354
2330.3,29.2746
2331.7,22.701
2333.2,14.233
2334.6,9.355532
2336,6.3172
2337.4,4.12784
2338.8,1.271796
2340.2,2.78146
2341.7,4.83672
2343.1,1.167596
2344.5,0.3348718
2345.9,2.366938
2347.3,-3.64208
2348.7,0.89927
2350.1,-0.721334
2351.6,0.2048
2353,1.099322
2354.4,3.11268
2355.8,-0.41126
2357.2,-2.03808
2358.6,-6.44818
2360,1.651836
2361.4,2.27308
2362.8,0.42944
2364.2,-0.0581884000000001
2365.6,4.9734
2367,2.579502
2368.4,3.17108
2369.8,3.01416
2371.2,2.114518
2372.6,2.5737144
2374,0.61026
2375.4,-1.09336
2376.8,1.633024
2378.2,0.6258
2379.6,3.22406
2381,4.647882
2382.4,1.584826
2383.8,4.98424
2385.2,1.98774
2386.6,2.498716
2388,-0.591525
2389.4,-0.05214
2390.8,0.16906
2392.1,0.85382
2393.5,1.64198
2394.9,1.70598
2396.3,0.8895
2397.7,2.70952
2399.1,1.772072
2400.5,2.89246
2401.9,-2.248766
2403.2,-0.55472
2404.6,0.13238
2406,-1.53602
2407.4,0.6103234
2408.8,0.053248
2410.2,2.70136
2411.5,1.3399014
2412.9,-0.64025
2414.3,1.560654
2415.7,0
2417,-1.27434
2418.4,0.356256
2419.8,1.107556
2421.2,1.8830662
2422.5,-2.1168392
2423.9,1.901212
2425.3,0.43948
2426.7,-0.685544
2428,2.2699678
2429.4,-0.773798
2430.8,0.0234599999999999
2432.1,0.0989
2433.5,0.013382
2434.9,1.22518
2436.2,0.47773278
2437.6,-0.39454
2439,1.7243258
2440.3,-1.660352
2441.7,-0.524306
2443.1,0.055044
2444.4,1.360718
2445.8,0.91492
2447.2,-0.09688
2448.5,-0.13828
2449.9,0.02366
2451.2,1.369866
2452.6,0.619872
2454,1.132196
2455.3,0.158524
2456.7,1.560316
2458,-2.087526
2459.4,0.6371706
2460.7,2.096365
2462.1,-0.83648
2463.4,-0.089378
2464.8,-2.75676
2466.1,1.9501
2467.5,-0.202952
2468.8,0.596064
2470.2,-0.384238
2471.5,3.896622
2472.9,0.874022
2474.2,0.0908199999999999
2475.6,3.96058
2476.9,0.0998904
2478.3,1.749694
2479.6,1.551004
2481,-0.488902
2482.3,0.6034192
2483.6,1.10915
2485,-0.56288
2486.3,0.15036
2487.7,1.097856
2489,3.238076
2490.3,1.842244
2491.7,2.63034
2493,0.84402
2494.4,2.16232
2495.7,2.7763876
2497,0.927226
2498.4,2.07322
2499.7,2.7473228
2501,3.772884
2502.4,1.55346
2503.7,0.311052
2505,0.805376
2506.4,1.53668
2507.7,1.18008
2509,2.101622
2510.3,0.960488
2511.7,1.11878
2513,1.490854
2514.3,2.014816
2515.6,2.681328
2517,-0.395796
2518.3,1.647618
2519.6,0.674
2520.9,0
2522.3,2.14468
2523.6,1.681408
2524.9,-2.216228
2526.2,1.097122
2527.5,2.142402
2528.9,1.811032
2530.2,3.82428
2531.5,4.03322
2532.8,1.744214
2534.1,4.90296
2535.4,0.7194158
2536.8,2.910678
2538.1,2.56854
2539.4,4.57866
2540.7,3.640316
2542,6.100398
2543.3,2.90312
2544.6,3.104048
2545.9,1.5280532
2547.2,0.83846
2548.6,3.1826366
2549.9,6.83844
2551.2,3.72178
2552.5,2.698752
2553.8,2.44728
2555.1,5.29264
2556.4,2.88736
2557.7,3.595974
2559,3.355684
2560.3,4.36416
2561.6,2.659474
2562.9,1.78262
2564.2,5.37466
2565.5,4.0478
2566.8,4.49198
2568.1,3.112528
2569.4,3.93306
2570.7,2.30692
2572,4.6188
2573.3,3.608382
2574.6,2.946352
2575.9,4.51603
2577.1,4.90376
2578.4,4.45976788
2579.7,-0.24126
2581,4.438126
2582.3,2.31242
2583.6,2.66049
2584.9,2.52886
2586.2,1.968102
2587.5,4.807066
2588.7,5.106436
2590,2.161942
2591.3,2.921149
2592.6,2.59
2593.9,1.5871138
2595.2,1.86774
2596.4,-0.0450080000000001
2597.7,2.358764
2599,2.273836
2600.3,1.18082
2601.6,3.34454
2602.8,1.69156
2604.1,0.49928
2605.4,0.337476
2606.7,0.479884
2608,2.63998
2609.2,-0.417152
2610.5,1.478292
2611.8,2.89273
2613,2.02176
2614.3,2.3616456
2615.6,-0.2622
2616.9,1.9257
2618.1,-2.42148
2619.4,-0.12382
2620.7,-1.269526
2621.9,-0.76616
2623.2,0.04736
2624.5,-1.044828
2625.7,-1.53928
2627,-1.52422
2628.3,-1.509
2629.5,0
2630.8,-0.585184
2632.1,-2.97135
2633.3,-0.9344
2634.6,-1.93674
2635.8,-1.369772
2637.1,-3.21812
2638.4,-3.32792
2639.6,-2.91696
2640.9,-3.073818
2642.1,-4.8057
2643.4,-3.064244
2644.6,-3.301728
2645.9,-3.56776
2647.2,-6.88874
2648.4,-1.432026
2649.7,-2.669966
2650.9,-3.15776
2652.2,-4.48812
2653.4,-3.42426
2654.7,-3.17334
2655.9,-3.65244
2657.2,-4.996564
2658.4,-2.658364
2659.7,-1.486076
2660.9,-4.12966
2662.2,-3.570104
2663.4,-7.0782
2664.6,-1.2455094
2665.9,-3.2504
2667.1,-3.25482
2668.4,-3.44652
2669.6,-4.12316
2670.9,-4.34486
2672.1,-4.365028
2673.3,-2.99746
2674.6,-4.101166
2675.8,-4.575072
2677.1,-4.45148
2678.3,-3.125486
2679.5,-1.30158
2680.8,-1.3567712
2682,-2.845202
2683.2,-2.355362
2684.5,-3.019048
2685.7,-3.67185
2686.9,-0.1585
2688.2,-2.133102
2689.4,-3.07284
2690.6,-2.41774
2691.9,-2.653898
2693.1,-0.527518
2694.3,0.0898679999999999
2695.5,-0.844568
2696.8,-1.277696
2698,-2.31364
2699.2,0.59536
2700.4,-1.25329
2701.7,-3.26897
2702.9,-2.9539
2704.1,-2.669648
2705.3,-1.63192
2706.6,-3.860126
2707.8,-1.27722
2709,-2.093926
2710.2,-0.54592
2711.4,-0.49218
2712.6,1.63213
2713.9,-0.0690663999999999
2715.1,-4.2247
2716.3,0.8667
2717.5,-0.0563180000000001
2718.7,-0.08154
2719.9,-1.151725
2721.2,-1.177714
2722.4,0.50826
2723.6,1.003996
2724.8,1.477624
2726,0
2727.2,1.225002
2728.4,3.110298
2729.6,-0.384724
2730.8,1.718256
2732,3.22262
2733.3,0.82006
2734.5,0.77236
2735.7,-1.87145
2736.9,0.918444
2738.1,-0.435456
2739.3,2.65448
2740.5,0.28062
2741.7,0.0730000000000001
2742.9,-1.5785598
2744.1,-1.993856
2745.3,0.31668
2746.5,1.361
2747.7,0.68914
2748.9,0.07906
2750.1,0.63292
2751.3,1.234344
2752.5,1.13734
2753.7,-0.154256
2754.9,-0.4056056
2756,1.986576
2757.2,2.10343
2758.4,2.118932
2759.6,4.2661
2760.8,2.888026
2762,4.58728
2763.2,4.1198
2764.4,3.074694
2765.6,4.949036
2766.8,5.441666
2767.9,4.701746
2769.1,6.21236
2770.3,5.02078
2771.5,4.65708
2772.7,3.980078
2773.9,1.928418
2775.1,4.44198
2776.2,2.01698
2777.4,4.810965
2778.6,5.409848
2779.8,4.43612
2781,0.84226
2782.1,3.64286
2783.3,4.73405
2784.5,2.553274
2785.7,0.963402
2786.8,2.96664
2788,3.989826
2789.2,3.5324488
2790.4,3.454418
2791.5,2.57346
2792.7,1.894258
2793.9,1.972552
2795.1,-0.583426
2796.2,3.701792
2797.4,-1.610784
2798.6,1.1759184
2799.7,1.110924
2800.9,0.452566
2802.1,1.840416
2803.2,1.436466
2804.4,-0.881294
2805.6,-0.03256
2806.7,-1.5633
2807.9,-2.1490456
2809.1,0.0318600000000002
2810.2,-0.571466
2811.4,0.0765379999999998
2812.6,1.07446
2813.7,0.72484
2814.9,-0.696492
2816,-0.28403
2817.2,-0.611412
2818.4,0
2819.5,0.81366
2820.7,-0.434296
2821.8,-0.635408
2823,-0.47088
2824.1,-0.102434
2825.3,-0.10354672
2826.4,-1.06574
2827.6,-0.0265576
2828.7,-2.65858
2829.9,0.43961342
2831,-0.23564
2832.2,-0.39974
2833.3,-1.85764
2834.5,-2.32376
2835.6,-4.4891
2836.8,-4.008708
2837.9,-7.46278
2839.1,-0.3237
2840.2,-3.029706
2841.4,-4.36886
2842.5,-1.598446
2843.7,-2.126658
2844.8,-2.941594
2845.9,0.180932
2847.1,-2.31055
2848.2,-3.594712
2849.4,-3.72552
2850.5,-4.67263
2851.7,-6.65378
2852.8,-3.553246
2853.9,-5.73512
2855.1,-3.87034
2856.2,-2.20616
2857.3,-3.044046
2858.5,-2.836156
2859.6,-2.600234
2860.7,-2.538454
2861.9,-5.33286
2863,-2.167328
2864.1,-3.759762
2865.3,-5.31384
2866.4,-5.07194
2867.5,-4.517214
2868.7,-3.504366
2869.8,-1.49498
2870.9,-3.594954
2872,-1.047868
2873.2,-2.6411546
2874.3,-1.54088
2875.4,-2.89114
2876.5,-3.93214
2877.7,-3.18876
2878.8,-2.87182
2879.9,0.203636
2881,-0.191376
2882.2,-0.7026088
2883.3,0.238138
2884.4,-0.6669
2885.5,0.34618
2886.6,1.777254
2887.8,0.447524
2888.9,-1.595942
2890,4.910944
2891.1,4.882664
2892.2,7.04256
2893.3,6.303914
2894.4,9.89648
2895.6,6.561802
2896.7,7.401058
2897.8,10.09888
2898.9,11.12128
2900,12.89742
2901.1,11.1331
2902.2,14.33208
2903.3,18.3996
2904.4,16.36606
2905.6,18.897
2906.7,20.4948
2907.8,22.216
2908.9,24.7624
2910,27.4778
2911.1,30.491
2912.2,31.3752
2913.3,34.7392
2914.4,35.0124
2915.5,35.3646
2916.6,38.9296
2917.7,40.915
2918.8,40.599
2919.9,45.7814
2921,49.0566
2922.1,48.5702
2923.2,52.6996
2924.3,54.0356
2925.4,53.7572
2926.5,55.4598
2927.6,61.8654
2928.7,60.3424
2929.8,60.5708
2930.8,64.7836
2931.9,63.4216
2933,70.0552
2934.1,70.0262
2935.2,71.2852
2936.3,72.7552
2937.4,73.4356
2938.5,77.5292
2939.6,75.346
2940.6,81.8806
2941.7,79.1046
2942.8,75.6888
2943.9,77.931
2945,80.295
2946.1,77.6602
2947.2,80.868
2948.2,80.4488
2949.3,78.9328
2950.4,74.1452
2951.5,76.515
2952.6,72.6358
2953.6,72.0368
2954.7,71.479
2955.8,66.844
2956.9,63.8872
2957.9,61.3502
2959,56.0892
2960.1,55.958
2961.2,50.6888
2962.2,51.5828
2963.3,47.2596
2964.4,45.1898
2965.5,40.2866
2966.5,37.9646
2967.6,37.234
2968.7,32.5232
2969.7,30.401
2970.8,33.4928
2971.9,30.5564
2973,29.2156
2974,26.592
2975.1,26.0004
2976.2,23.2618
2977.2,22.36714
2978.3,19.99528
2979.3,21.9788
2980.4,20.77678
2981.5,18.44256
2982.5,16.41836
2983.6,17.60246
2984.7,18.7454
2985.7,17.2588
2986.8,15.65296
2987.8,14.22722
2988.9,18.08622
2989.9,15.16432
2991,17.67466
2992.1,13.31688
2993.1,17.18764
2994.2,15.65242
2995.2,16.93824
2996.3,15.94856
2997.3,20.20692
2998.4,16.73856
2999.4,20.4604
3000.5,18.39816
3001.5,18.6508
3002.6,18.2858
3003.6,16.7512
3004.7,19.11066
3005.7,21.7457
3006.8,20.4493
3007.8,22.338
3008.9,22.234
3009.9,24.9596
3011,24.7996
3012,24.6678
3013,24.654
3014.1,28.6082
3015.1,25.8376
3016.2,28.1206
3017.2,28.5842
3018.2,29.7898
3019.3,29.906
3020.3,29.6394
3021.4,32.5992
3022.4,30.4568
3023.4,31.6424
3024.5,31.6022
3025.5,35.2792
3026.5,36.9206
3027.6,34.8898
3028.6,41.204
3029.6,35.8962
3030.7,40.1616
3031.7,40.1124
3032.7,40.0268
3033.8,42.9506
3034.8,42.6436
3035.8,44.6156
3036.9,48.04
3037.9,46.322
3038.9,48.466
3039.9,47.8362
3041,53.6702
3042,51.354
3043,53.6644
3044,53.684
3045.1,55.505
3046.1,54.8752
3047.1,55.2366
3048.1,58.3034
3049.2,59.9572
3050.2,61.3134
3051.2,59.5758
3052.2,61.7294
3053.2,62.8622
3054.3,64.539
3055.3,65.1868
3056.3,67.5104
3057.3,67.4966
3058.3,69.2942
3059.3,71.2208
3060.3,72.1352
3061.4,73.5318
3062.4,77.4928
3063.4,75.3782
3064.4,76.5536
3065.4,80.918
3066.4,81.9
3067.4,81.874
3068.4,84.9546
3069.5,82.8162
3070.5,84.7004
3071.5,85.482
3072.5,88.6306
3073.5,87.3262
3074.5,91.0682
3075.5,91.2412
3076.5,93.555
3077.5,94.238
3078.5,97.8264
3079.5,101.7316
3080.5,100.5484
3081.5,104.6176
3082.5,104.7764
3083.5,106.2928
3084.5,106.7708
3085.5,105.16
3086.5,109.552
3087.5,110.052
3088.5,112.826
3089.5,116.576
3090.5,117.646
3091.5,121.234
3092.5,119.122
3093.5,122.792
3094.5,123.362
3095.5,128.098
3096.4,128.758
3097.4,128.572
3098.4,125.286
3099.4,131.8
3100.4,135.506
3101.4,136.97
3102.4,136.564
3103.4,138.52
3104.4,138.264
3105.3,145.298
3106.3,146.668
3107.3,149.208
3108.3,151.548
3109.3,149.176
3110.3,153.206
3111.3,156.378
3112.2,158.126
3113.2,161.502
3114.2,162.394
3115.2,164.294
3116.2,163.934
3117.1,168.844
3118.1,168.804
3119.1,171.262
3120.1,171
3121,173.066
3122,176.678
3123,177.396
3124,178.552
3124.9,183.268
3125.9,183.7
3126.9,184.024
3127.9,187.584
3128.8,189.2
3129.8,191.854
3130.8,192.288
3131.7,193.298
3132.7,195.304
3133.7,197.864
3134.7,199.474
3135.6,202.03
3136.6,200.776
3137.6,203.354
3138.5,205.086
3139.5,210.024
3140.4,212.076
3141.4,214.55
3142.4,210.014
3143.3,215.574
3144.3,216.19
3145.3,219.036
3146.2,212.694
3147.2,220.43
3148.1,222.808
3149.1,223.818
3150.1,223.184
3151,227.158
3152,226.712
3152.9,226.274
3153.9,227.694
3154.8,230.272
3155.8,232.74
3156.7,231.704
3157.7,236.268
3158.6,237.14
3159.6,232.894
3160.6,238.092
3161.5,242.272
3162.5,240.392
3163.4,241.09
3164.4,242.208
3165.3,238.686
3166.2,243.79
3167.2,246.228
3168.1,243.314
3169.1,243.482
3170,246.566
3171,247.028
3171.9,248.56
3172.9,249.678
3173.8,249.188
3174.7,250.23
3175.7,247.814
3176.6,248.978
3177.6,255.196
3178.5,248.232
3179.5,254.514
3180.4,252.186
3181.3,254.338
3182.3,255.866
3183.2,255.368
3184.1,253.8
3185.1,255.758
3186,252.97
3186.9,258.24
3187.9,255.012
3188.8,257.068
3189.7,254.776
3190.7,255.036
3191.6,257.47
3192.5,257.07
3193.5,260.682
3194.4,256.838
3195.3,257.66
3196.3,260.448
3197.2,259.636
3198.1,254.982
3199,249.82
3200,251.856
3200.9,251.018
3201.8,253.62
3202.7,251.5
3203.7,252.194
3204.6,254.214
3205.5,253.076
3206.4,245.378
3207.3,245.396
3208.3,245.112
3209.2,242.03
3210.1,241.406
3211,236.71
3211.9,237.728
3212.9,238.246
3213.8,235.32
3214.7,232.132
3215.6,231.188
3216.5,231.418
3217.4,231.892
3218.4,228.098
3219.3,225.042
3220.2,222.214
3221.1,221.012
3222,218.832
3222.9,215.754
3223.8,213.786
3224.7,210.564
3225.6,209.072
3226.6,208.37
3227.5,204.87
3228.4,202.882
3229.3,197.092
3230.2,194.604
3231.1,194.492
3232,189.93
3232.9,188.982
3233.8,182.072
3234.7,180.876
3235.6,178.556
3236.5,174.996
3237.4,171.708
3238.3,166.288
3239.2,161.986
3240.1,159.414
3241,156.222
3241.9,152.756
3242.8,147.854
3243.7,136.604
3244.6,135.532
3245.5,129.19
3246.4,121.382
3247.3,116.892
3248.2,107.052
3249.1,101.916
3250,88.1774
3250.9,80.6452
3251.8,70.4702
3252.7,58.7402
3253.5,44.559
3254.4,28.3978
3255.3,11.40784
3256.2,-7.89202
