250.34,-5.313762
252.57,-4.599146
254.8,0
257.03,-4.724808
259.26,-2.41074
261.48,0.526554
263.71,3.49042
265.94,-1.167104
268.16,0.8625
270.39,2.90914
272.61,9.23613
274.84,-2.07959
277.06,0.6609812
279.28,1.98346
281.51,5.03672
283.73,1.26722
285.95,5.672294
288.17,10.20462
290.39,0.70046
292.61,2.416309
294.83,-2.399464
297.05,4.18008
299.27,2.3695
301.48,6.99186
303.7,3.433028
305.91,9.440608
308.13,10.25018
310.35,7.76882
312.56,6.24356
314.77,4.45524
316.99,5.634136
319.2,3.354978
321.41,4.59308
323.62,0.8418
325.83,-0.0354064
328.04,4.36812
330.25,-4.23155
332.46,-3.79602
334.67,-8.17972
336.88,-4.48514
339.08,-4.910032
341.29,-4.303343
343.5,-4.238524
345.7,6.95828
347.91,6.72732
350.11,27.7924
352.31,56.6694
354.52,72.2018
356.72,69.8282
358.92,55.012
361.12,34.272
363.32,28.2032
365.52,26.747
367.72,25.204
369.92,13.3304
372.12,21.23916
374.32,42.0998
376.51,77.959
378.71,106.078
380.9,89.4384
383.1,56.5586
385.29,23.9698
387.49,10.8413
389.68,8.10933
391.87,6.42006
394.07,0.312956
396.26,-0.285172
398.45,3.41304
400.64,9.4354
402.83,15.54148
405.02,23.0254
407.21,32.8462
409.39,58.461
411.58,125.108
413.77,343.27
415.95,615.116
418.14,700
420.32,481.424
422.51,238.654
424.69,126.092
426.87,89.0078
429.06,87.8836
431.24,82.6658
433.42,57.5792
435.6,35.1998
437.78,16.9136
439.96,5.138034
442.14,-0.09335804
444.31,7.43526
446.49,25.149
448.67,41.6202
450.84,37.1234
453.02,18.0048
455.19,0.547388
457.37,-0.47358
459.54,-5.954174
461.71,-0.537154
463.89,-3.68569
466.06,-0.0981419999999999
468.23,-2.341408
470.4,-12.87756
472.57,-6.81938
474.74,-3.807268
476.91,-1.963806
479.07,-2.158908
481.24,2.567219
483.41,9.77208
485.57,8.69396
487.74,10.8882
489.9,11.781576
492.07,7.878
494.23,-3.94878
496.4,-2.20656
498.56,-6.264072
500.72,-10.53316
502.88,-7.14482
505.04,-4.235886
507.2,0.591304
509.36,-0.7952
511.52,-0.27886
513.68,-0.714364
515.83,2.456708
517.99,5.4081
520.14,1.77568
522.3,0.53276
524.45,1.35814
526.61,5.51818
528.76,7.07579
530.91,5.517772
533.07,12.0231
535.22,9.7112
537.37,7.37208
539.52,12.8979
541.67,11.2936
543.82,8.48398
545.97,5.37818
548.11,7.84676
550.26,-1.105254
552.41,0.943046
554.55,-1.71906
556.7,-5.291918
558.84,0.99812
560.98,6.761624
563.13,7.65662
565.27,10.079936
567.41,13.49726
569.55,18.7226
571.69,34.7924
573.83,85.6004
575.97,128.14
578.11,136.43
580.25,103.5472
582.39,94.7536
584.52,134.2884
586.66,175.5878
588.79,163.2458
590.93,107.536
593.06,61.778
595.19,36.375
597.33,22.482
599.46,16.169928
601.59,8.80292
603.72,1.2447
605.85,6.99942
607.98,-0.034373
610.11,4.61442
612.24,0.839132
614.36,5.33852
616.49,5.28334
618.62,4.55034
620.74,3.9264
622.87,2.3245
624.99,0.014986
627.11,-0.395288
629.24,-1.9601
631.36,-2.04656
633.48,3.169468
635.6,-0.51396
637.72,-0.351176
639.84,1.06614
641.96,0.0427142
644.08,-2.200592
646.2,-3.19928
648.31,-3.242598
650.43,-3.54418
652.54,-5.93244
654.66,-7.25374
656.77,-6.767628
658.89,-5.307294
661,-2.93982
663.11,2.39278
665.22,1.429754
667.33,7.07888
669.44,1.80222
671.55,5.33494
673.66,11.8376
675.77,14.40276
677.88,20.3024
679.98,32.6082
682.09,39.1738
684.2,48.2446
686.3,62.4624
688.4,70.8074
690.51,81.7744
692.61,90.53
694.71,96.9652
696.81,104.3984
698.92,110.49
701.02,120.236
703.11,128.58
705.21,134.452
707.31,135.388
709.41,143.808
711.51,141.068
713.6,137.478
715.7,125.722
717.79,113.578
719.89,100.0126
721.98,92.7966
724.07,72.1454
726.16,64.6888
728.25,56.3938
730.35,52.0804
732.44,51.7778
734.52,51.6662
736.61,59.6606
738.7,75.7632
740.79,97.4346
742.87,125.834
744.96,166.156
747.05,208.102
749.13,239.054
751.21,241.524
753.3,212.64
755.38,162.758
757.46,115.464
759.54,81.9112
761.62,53.4676
763.7,35.8912
765.78,25.9514
767.86,14.31022
769.94,9.4076
772.01,3.40414
774.09,-0.27471
776.17,0.77428
778.24,-4.846008
780.32,-1.19024
782.39,-1.4192
784.46,-1.701074
786.53,6.439406
788.61,3.6438
790.68,2.87818
792.75,6.6248
794.82,6.79544
796.89,4.74404
798.95,4.727004
801.02,3.760768
803.09,3.272082
805.15,4.76632
807.22,3.935
809.28,10.297
811.35,16.68996
813.41,32.4946
815.47,31.99624
817.53,17.30978
819.6,7.46572
821.66,7.50546
823.72,4.9661574
825.78,1.91068
827.83,17.503012
829.89,8.50766
831.95,6.201868
834,3.157616
836.06,1.57594
838.12,2.16924
840.17,0.26264
842.22,3.5423
844.28,3.9509
846.33,1.12178
848.38,2.0511
850.43,4.4717
852.48,4.46714
854.53,5.43446
856.58,5.51086
858.63,5.39792
860.67,4.84806
862.72,8.26025
864.77,5.48144
866.81,4.880252
868.86,3.496624
870.9,0.93658
872.94,2.211392
874.98,-0.603552
877.03,0.4267
879.07,-2.0018
881.11,0.88278
883.15,1.99318
885.19,0.2546164
887.22,1.658986
889.26,2.451256
891.3,2.73972
893.33,-2.717942
895.37,-2.8861698
897.4,-3.015506
899.44,0
901.47,-4.07918
903.5,0.329818
905.54,-0.200054
907.57,3.603902
909.6,3.912938
911.63,-3.05446
913.66,0.98912
915.68,2.01018
917.71,-0.12416
919.74,-1.58353
921.76,-2.24604
923.79,-5.19912
925.82,2.07434
927.84,3.52084
929.86,5.90526
931.89,6.42884
933.91,6.59576
935.93,5.90112
937.95,6.3339
939.97,4.23994
941.99,4.749168
944.01,1.313334
946.02,3.93314
948.04,5.36996
950.06,0.792312
952.07,2.51502
954.09,1.4227
956.1,3.799782
958.12,4.34852
960.13,4.061528
962.14,5.112778
964.15,2.07544
966.16,-0.65373
968.17,-1.533608
970.18,0.1476374
972.19,-1.69578
974.2,-0.89094
976.2,0.675902
978.21,5.405002
980.22,4.02384
982.22,5.82748
984.22,6.778146
986.23,8.51182
988.23,1.05294
990.23,5.508759
992.23,5.58352
994.24,4.57834
996.23,6.51786
998.23,5.544466
1000.2,9.38278
1002.2,11.05442
1004.2,12.9894
1006.2,13.43054
1008.2,15.9126
1010.2,11.65912
1012.2,14.8254
1014.2,16.1934
1016.2,15.838
1018.2,15.959
1020.2,17.4094
1022.2,22.7936
1024.2,23.574
1026.1,27.0814
1028.1,28.2554
1030.1,37.456
1032.1,43.269
1034.1,53.5576
1036.1,48.7734
1038.1,43.6944
1040.1,38.468
1042,37.8578
1044,36.2882
1046,40.0774
1048,44.0708
1050,48.9484
1051.9,48.0862
1053.9,45.5442
1055.9,45.6028
1057.9,43.6502
1059.9,41.9484
1061.8,37.7562
1063.8,37.678
1065.8,37.8496
1067.8,33.732
1069.7,32.1622
1071.7,32.8756
1073.7,27.0894
1075.6,28.6278
1077.6,24.2846
1079.6,18.4524
1081.5,17.2576
1083.5,16.19918
1085.5,10.6627
1087.5,11.18786
1089.4,7.93654
1091.4,4.99088
1093.3,3.230242
1095.3,4.164672
1097.3,6.23624
1099.2,7.71774
1101.2,4.75312
1103.2,5.32704
1105.1,6.112674
1107.1,5.0163132
1109,3.42295
1111,-0.892394844
1113,-0.780062
1114.9,2.0906
1116.9,3.075238
1118.8,-0.313242
1120.8,4.043796
1122.7,6.20997972
1124.7,5.460284
1126.6,4.45516
1128.6,5.7887
1130.5,4.5533
1132.5,6.033392
1134.4,6.67118
1136.4,9.7038
1138.3,11.90448
1140.3,11.98606
1142.2,9.63768
1144.2,13.77476
1146.1,14.0509
1148.1,11.56292
1150,17.791
1151.9,22.968
1153.9,21.649
1155.8,21.4584
1157.8,21.8502
1159.7,24.9826
1161.6,26.407
1163.6,30.947
1165.5,32.9958
1167.5,38.8438
1169.4,44.8626
1171.3,47.2294
1173.3,52.9516
1175.2,54.2036
1177.1,57.315
1179.1,64.7332
1181,68.3466
1182.9,75.357
1184.9,81.8556
1186.8,92.236
1188.7,98.9052
1190.6,109.636
1192.6,119.62
1194.5,127.566
1196.4,137.804
1198.4,145.274
1200.3,151.648
1202.2,162.364
1204.1,167.558
1206,176.6
1208,184.632
1209.9,194.254
1211.8,195.752
1213.7,202.78
1215.6,202.42
1217.6,205.956
1219.5,210.674
1221.4,207.618
1223.3,197.89
1225.2,193.232
1227.1,191.046
1229.1,185.866
1231,177.352
1232.9,172.886
1234.8,162.938
1236.7,160.134
1238.6,152.36
1240.5,144.412
1242.4,138.304
1244.3,134.222
1246.2,125.582
1248.1,118.302
1250.1,115.782
1252,109.12
1253.9,105.888
1255.8,101.5172
1257.7,102.7262
1259.6,103.3292
1261.5,105.492
1263.4,105.13
1265.3,103.97
1267.2,114.252
1269.1,115.966
1271,122.434
1272.9,126.804
1274.8,131.188
1276.6,127.752
1278.5,117.4
1280.4,112.03
1282.3,103.146
1284.2,94.7762
1286.1,87.1882
1288,77.388
1289.9,68.9968
1291.8,65.4718
1293.7,60.3156
1295.6,57.8898
1297.4,51.1664
1299.3,53.9984
1301.2,50.912
1303.1,51.0948
1305,50.8818
1306.9,45.6264
1308.7,48.2482
1310.6,44.324
1312.5,45.8148
1314.4,45.5546
1316.3,44.044
1318.1,42.6642
1320,41.1154
1321.9,42.7832
1323.8,45.8784
1325.7,45.4924
1327.5,46.78
1329.4,50.155
1331.3,51.0874
1333.1,49.498
1335,46.9576
1336.9,55.0644
1338.8,57.7006
1340.6,60.4356
1342.5,68.001
1344.4,70.477
1346.2,82.0478
1348.1,90.5014
1350,99.6872
1351.8,109.196
1353.7,106.226
1355.6,110.758
1357.4,107.326
1359.3,105.8508
1361.1,107.4242
1363,110.884
1364.9,124.134
1366.7,136.304
1368.6,152.49
1370.4,173.984
1372.3,200.516
1374.2,232.198
1376,274.602
1377.9,323.85
1379.7,380.826
1381.6,417.888
1383.4,429.27
1385.3,407.05
1387.1,368.546
1389,331.974
1390.8,300.976
1392.7,288.378
1394.5,289.678
1396.4,298.236
1398.2,313.278
1400.1,315.094
1401.9,307.706
1403.8,278.794
1405.6,241.794
1407.4,205.914
1409.3,170.808
1411.1,144.112
1413,121.88
1414.8,101.851
1416.6,86.5712
1418.5,73.684
1420.3,67.4662
1422.2,54.5532
1424,49.921
1425.8,42.0702
1427.7,35.9042
1429.5,30.189
1431.3,25.0272
1433.2,22.0942
1435,19.4642
1436.8,16.648
1438.7,16.4218
1440.5,13.4752
1442.3,7.10846
1444.1,7.55446
1446,7.02554
1447.8,4.97204
1449.6,2.363224
1451.4,3.94402
1453.3,2.04726
1455.1,0.2308206
1456.9,-0.1301756
1458.7,-1.77816
1460.6,-4.7208
1462.4,-2.4809
1464.2,-4.88506
1466,-6.657708
1467.8,-6.763444
1469.6,-5.527604
1471.5,-6.2673
1473.3,-7.89458
1475.1,-10.24586
1476.9,-7.81534
1478.7,-3.473528
1480.5,-8.78324
1482.4,-6.27702
1484.2,-8.47058
1486,-7.40786
1487.8,-7.96266
1489.6,-10.96098
1491.4,-8.68968
1493.2,-8.67332
1495,-7.92662
1496.8,-3.440162
1498.6,-6.91214
1500.4,-6.27782
1502.2,-10.77454
1504,-8.513
1505.8,-3.4819412
1507.6,-2.87576
1509.4,-4.22512
1511.2,-4.859696
1513,-6.4092
1514.8,-6.30544
1516.6,-4.85416
1518.4,-4.562432
1520.2,-1.230112
1522,-3.1322718
1523.8,-6.17364
1525.6,-4.526282
1527.4,-5.32142
1529.2,-4.463304
1531,-1.48528
1532.8,-2.8082254
1534.6,-1.875126
1536.4,-0.311782
1538.2,0.1772514
1539.9,0.229672
1541.7,4.23038
1543.5,7.58296
1545.3,8.27838
1547.1,11.60098
1548.9,16.4272
1550.7,21.5428
1552.4,28.2898
1554.2,36.1436
1556,43.1272
1557.8,38.223
1559.6,34.3296
1561.3,34.1888
1563.1,36.217
1564.9,41.9846
1566.7,43.6378
1568.4,50.0854
1570.2,52.2588
1572,62.058
1573.8,60.3058
1575.5,67.296
1577.3,74.6098
1579.1,77.4684
1580.9,86.1438
1582.6,92.8268
1584.4,101.0606
1586.2,106.324
1587.9,117.624
1589.7,120.366
1591.5,130.828
1593.2,135.434
1595,144.252
1596.8,152.39
1598.5,159.356
1600.3,173.934
1602,178.308
1603.8,188.458
1605.6,197.12
1607.3,208.52
1609.1,216.492
1610.8,225.258
1612.6,236.202
1614.4,247.7
1616.1,251.714
1617.9,263.566
1619.6,271.366
1621.4,275.006
1623.1,287.342
1624.9,293.76
1626.6,300.462
1628.4,306.436
1630.1,312.222
1631.9,317.06
1633.6,321.83
1635.4,327.164
1637.1,332.136
1638.9,335.052
1640.6,334.196
1642.4,338.898
1644.1,338.286
1645.8,340.712
1647.6,343.546
1649.3,342.836
1651.1,343.466
1652.8,342.868
1654.6,342.886
1656.3,335.05
1658,335.334
1659.8,337.084
1661.5,331.448
1663.2,331.402
1665,332.544
1666.7,328.318
1668.4,325.296
1670.2,325.772
1671.9,325.578
1673.6,324.388
1675.4,324.228
1677.1,321.036
1678.8,324.572
1680.5,324.512
1682.3,325.326
1684,325.668
1685.7,329.808
1687.5,336.366
1689.2,340.064
1690.9,349.43
1692.6,356.016
1694.3,361.444
1696.1,373.732
1697.8,382.084
1699.5,391.782
1701.2,400.454
1702.9,410.962
1704.7,417.398
1706.4,424.57
1708.1,435.242
1709.8,434.036
1711.5,440.214
1713.2,444.354
1714.9,442.144
1716.7,439.692
1718.4,436.624
1720.1,430.108
1721.8,420.642
1723.5,412.404
1725.2,403.242
1726.9,391.25
1728.6,378.842
1730.3,370.728
1732,356.346
1733.7,338.962
1735.4,318.794
1737.1,301.756
1738.8,279.234
1740.6,258.682
1742.3,233.416
1744,213.438
1745.7,193.558
1747.3,168.598
1749,150.154
1750.7,131.13
1752.4,114.66
1754.1,104.408
1755.8,88.25
1757.5,81.4568
1759.2,68.1236
1760.9,57.0002
1762.6,48.9264
1764.3,42.4502
1766,39.67
1767.7,34.4858
1769.4,29.6768
1771.1,25.6554
1772.7,24.3188
1774.4,21.1986
1776.1,17.996
1777.8,14.98452
1779.5,11.68474
1781.2,9.76784
1782.8,9.52834
1784.5,9.31648
1786.2,3.71788
1787.9,-1.79676
1789.6,4.01339
1791.2,2.58166
1792.9,1.30986
1794.6,0.746636
1796.3,-0.986568
1798,-3.5841
1799.6,-2.8861
1801.3,-6.01436
1803,-7.71938
1804.7,-5.10292
1806.3,-2.592736
1808,-4.135094
1809.7,-4.858196
1811.3,-5.84124
1813,-2.894616
1814.7,-2.890032
1816.3,-3.6219044
1818,-0.53574
1819.7,-1.047416
1821.3,-1.5601308
1823,-4.01432
1824.7,-3.73786
1826.3,-2.434368
1828,-3.893964
1829.7,-3.50124
1831.3,-2.914044
1833,-2.91696
1834.6,-1.815954
1836.3,-1.51912
1838,-0.231766
1839.6,-3.452924
1841.3,-2.279986
1842.9,-2.575848
1844.6,-2.419212
1846.2,-2.36714
1847.9,-1.943936
1849.5,-0.0927419999999998
1851.2,1.021026
1852.8,-0.60674
1854.5,0.163154
1856.1,-0.87528
1857.8,0.794074
1859.4,1.890366
1861.1,0.2543426
1862.7,0.49842
1864.4,-0.53546
1866,1.496646
1867.7,1.486682
1869.3,1.244812
1871,0.590004
1872.6,3.227778
1874.2,2.661498
1875.9,0.68694
1877.5,0.154752
1879.2,0
1880.8,1.018274
1882.4,-4.03906
1884.1,-0.71133
1885.7,-1.217288
1887.3,-0.348496
1889,-1.01597
1890.6,-1.581766
1892.2,-6.58492
1893.9,-2.47224
1895.5,-6.478202
1897.1,-3.8749066
1898.8,-0.625076
1900.4,-2.481212
1902,-5.086004
1903.7,-3.30854
1905.3,-3.437218
1906.9,-3.089824
1908.5,-3.78304
1910.2,-1.727476
1911.8,-3.379708
1913.4,-3.9839
1915,-2.93187
1916.7,-3.8205
1918.3,-4.4873072
1919.9,-4.80826
1921.5,-4.1453394
1923.1,-2.718458
1924.8,-3.13876
1926.4,-3.310446
1928,-4.24374
1929.6,-0.33288
1931.2,0.0517339999999999
1932.8,-3.72344
1934.4,-3.103302
1936.1,-1.07528
1937.7,-2.603822
1939.3,-3.50964
1940.9,-2.911214
1942.5,-3.88455
1944.1,-1.656596
1945.7,-0.519692
1947.3,-2.32698
1948.9,-2.2592712
1950.5,-2.18878
1952.1,0.099756
1953.8,0.55664
1955.4,-0.34242
1957,-0.486772
1958.6,-1.033418
1960.2,-2.8741
1961.8,2.256602
1963.4,0.84664
1965,0.655676
1966.6,-2.8587936
1968.2,-1.4804974
1969.8,-0.172452
1971.4,0.33534
1973,-1.311958
1974.5,-1.734458
1976.1,1.40974
1977.7,-0.57079
1979.3,-2.2813
1980.9,-3.07901
1982.5,-2.7609454
1984.1,-0.376862
1985.7,-0.289356
1987.3,0.1327
1988.9,-3.152302
1990.5,-0.364222
1992,-1.079642
1993.6,-1.362966
1995.2,0.124462
1996.8,-0.0489400000000002
1998.4,1.84734
2000,-1.024848
2001.6,3.27192
2003.1,2.756698
2004.7,1.6130558
2006.3,-0.0491399999999999
2007.9,0.0263999999999999
2009.5,3.681748
2011,2.679736
2012.6,2.974704
2014.2,0.19898
2015.8,-1.75354
2017.3,2.576602
2018.9,-0.6674074
2020.5,3.5452516
2022.1,5.132962
2023.6,3.133598
2025.2,2.505296
2026.8,3.340022
2028.3,3.022256
2029.9,0.673766
2031.5,1.192
2033,4.52414
2034.6,4.315716
2036.2,0.1386336
2037.7,3.138324
2039.3,4.16076
2040.9,2.993356
2042.4,5.31112
2044,2.6185006
2045.6,2.839592
2047.1,2.74808
2048.7,2.66618
2050.2,-0.61226
2051.8,5.25616
2053.4,5.539962
2054.9,3.227912
2056.5,0.997628
2058,1.46719246
2059.6,0.950676
2061.1,2.55622
2062.7,0.102244
2064.2,1.143972
2065.8,3.57226
2067.3,0.23782
2068.9,-0.546926
2070.4,0.673896
2072,-0.0274560000000001
2073.5,1.591294
2075.1,4.89994
2076.6,2.067962
2078.2,-1.696972
2079.7,3.435782
2081.3,4.11624
2082.8,3.676648
2084.4,1.84668
2085.9,3.2725
2087.4,3.09674
2089,4.92326
2090.5,4.23538
2092.1,4.65122
2093.6,6.167468
2095.1,5.17698
2096.7,7.08352
2098.2,6.12566
2099.7,2.505894
2101.3,6.356774
2102.8,6.120716
2104.3,4.5939
2105.9,6.24114
2107.4,6.87352
2108.9,4.435822
2110.5,5.35662
2112,5.31678
2113.5,5.19234
2115.1,7.90938
2116.6,8.4544
2118.1,4.62146
2119.6,8.80884
2121.2,5.01606
2122.7,7.8093
2124.2,7.81532
2125.7,9.41882
2127.3,13.407
2128.8,16.89638
2130.3,18.7074
2131.8,27.3072
2133.3,43.694
2134.9,69.3856
2136.4,94.0934
2137.9,107.816
2139.4,104.0878
2140.9,85.4952
2142.4,66.0398
2144,44.1818
2145.5,26.4668
2147,25.2104
2148.5,15.1612
2150,13.48936
2151.5,9.51378
2153,8.401
2154.5,8.89584
2156,5.64902
2157.6,3.730934
2159.1,3.087572
2160.6,3.485466
2162.1,3.675398
2163.6,1.045922
2165.1,-0.875828
2166.6,-0.39774
2168.1,0.0731760000000001
2169.6,-2.1297
2171.1,2.95744
2172.6,2.37498
2174.1,-1.06674
2175.6,0.42831
2177.1,-0.86058
2178.6,-2.0154
2180.1,-1.415466
2181.6,-1.29308
2183.1,-4.08512
2184.6,-2.540406
2186.1,-0.12148
2187.5,-1.637098
2189,-1.415434
2190.5,-1.214476
2192,-2.72314
2193.5,-2.130192
2195,-1.562482
2196.5,-1.5698
2198,-2.429504
2199.5,-4.4650964
2201,-2.45429
2202.4,-1.88066
2203.9,-3.86392
2205.4,-4.6189
2206.9,-5.14572
2208.4,-4.31032
2209.9,-1.967422
2211.3,-4.55052
2212.8,-3.224358
2214.3,-5.32476
2215.8,-2.69252
2217.3,-3.608792
2218.7,-5.14318
2220.2,-2.29714
2221.7,-4.19781
2223.2,-3.67314
2224.6,1.215422
2226.1,-4.8990778
2227.6,-4.72524
2229.1,-3.27455
2230.5,-6.23084
2232,-2.97616
2233.5,-2.957742
2234.9,-3.434158
2236.4,-3.121298
2237.9,-4.896932
2239.3,-3.77822
2240.8,-4.276542
2242.3,-6.17146
2243.7,-0.86459
2245.2,-0.8463252
2246.7,-3.51702
2248.1,-4.04342
2249.6,-4.66774
2251.1,-3.252128
2252.5,-3.216358
2254,-1.945936
2255.4,-4.501152
2256.9,-3.076996
2258.3,-1.06568
2259.8,-3.6987
2261.3,-3.706634
2262.7,-1.902446
2264.2,-2.4429986
2265.6,-1.76652
2267.1,-2.596852
2268.5,-1.45274
2270,-4.61626
2271.4,-5.29424
2272.9,-3.4205216
2274.3,0
2275.8,-1.245564
2277.2,-2.696316
2278.7,0.67693
2280.1,-2.05208
2281.6,-2.227294
2283,-1.997636
2284.5,-3.666186
2285.9,-0.0262960000000001
2287.4,-4.772192
2288.8,-2.03654
2290.2,-2.735688
2291.7,-2.959728
2293.1,-2.945312
2294.6,-8.01884
2296,-2.70902
2297.4,-2.24222
2298.9,-2.546424
2300.3,-3.61266
2301.7,-1.5211324
2303.2,-1.960216
2304.6,-3.2565
2306,-5.65392
2307.5,-1.787262
2308.9,-1.975298
2310.3,-1.761244
2311.8,-3.4477182
2313.2,-1.430288
2314.6,-3.538028
2316.1,-2.38252
2317.5,-3.394162
2318.9,-0.134322
2320.3,-1.362282
2321.8,1.113576
2323.2,4.299396
2324.6,7.48002
2326,13.6851
2327.5,20.8488
2328.9,28.262
2330.3,26.407
2331.7,19.3664
2333.2,10.3055
2334.6,6.807146
2336,3.47284
2337.4,3.362176
2338.8,-0.4702432
2340.2,-1.01516
2341.7,-0.81922
2343.1,-2.25082
2344.5,-2.79258
2345.9,0.382126
2347.3,-3.23284
2348.7,-0.478184
2350.1,-2.063064
2351.6,2.04988
2353,3.416018
2354.4,1.932218
2355.8,-0.570332
2357.2,0.483814
2358.6,-5.936856
2360,3.649978
2361.4,3.1911
2362.8,1.936448
2364.2,-0.27992792
2365.6,-3.83882
2367,2.90018
2368.4,2.436272
2369.8,0.69416
2371.2,1.646438
2372.6,2.6793248
2374,3.301794
2375.4,1.12426
2376.8,1.87566
2378.2,3.60302
2379.6,2.49072
2381,2.5629154
2382.4,4.40852
2383.8,3.52698
2385.2,2.738512
2386.6,1.223942
2388,0.580422
2389.4,0.439291
2390.8,2.9771
2392.1,1.029994
2393.5,1.9459
2394.9,-0.252886
2396.3,2.430222
2397.7,2.49504
2399.1,1.67386
2400.5,2.272824
2401.9,-2.131382
2403.2,1.974152
2404.6,1.46812
2406,-2.32088
2407.4,1.5551
2408.8,-0.0565978
2410.2,0.0302699999999999
2411.5,0.9913538
2412.9,-2.558684
2414.3,-0.711596
2415.7,0
2417,0.385364
2418.4,2.041086
2419.8,-0.449772
2421.2,0.691142
2422.5,-0.87994
2423.9,0.89721
2425.3,0.0642679999999999
2426.7,-2.81436
2428,-0.79118
2429.4,0.17456
2430.8,-2.413582
2432.1,0.19666
2433.5,-0.851292
2434.9,1.47759
2436.2,-0.394798
2437.6,-0.31636
2439,1.109
2440.3,-1.614352
2441.7,-0.494978
2443.1,1.63038
2444.4,0.609596
2445.8,-1.848346
2447.2,1.42434
2448.5,0.25993
2449.9,-0.883728
2451.2,2.92272
2452.6,1.231274
2454,0.6102786
2455.3,1.812434
2456.7,0.060662
2458,0.86962
2459.4,-0.0401262
2460.7,-0.2191392
2462.1,-0.9581934
2463.4,-0.167372
2464.8,2.197395
2466.1,0.86459
2467.5,0.74454
2468.8,3.3111
2470.2,2.0676
2471.5,-0.250342
2472.9,2.94278
2474.2,1.81098
2475.6,2.68358
2476.9,1.8318358
2478.3,1.3015
2479.6,2.25917
2481,1.58058
2482.3,0.61705
2483.6,1.608526
2485,0.178292
2486.3,0.791194
2487.7,-0.92254
2489,0.24233
2490.3,2.53048
2491.7,0.54825
2493,-1.410598
2494.4,0.91934
2495.7,2.246116
2497,0.591928
2498.4,1.888119
2499.7,0.6708
2501,-0.654739999999999
2502.4,1.543274
2503.7,3.137626
2505,2.331974
2506.4,3.02676
2507.7,1.08474
2509,0.92064
2510.3,0.313798
2511.7,0.975244
2513,1.3965642
2514.3,0.5516
2515.6,0.296294
2517,1.165568
2518.3,1.776432
2519.6,2.142078
2520.9,0
2522.3,0.837252
2523.6,2.14508
2524.9,1.782908
2526.2,4.18436
2527.5,2.4258758
2528.9,1.501002
2530.2,-0.102558
2531.5,2.1439
2532.8,0.310302
2534.1,2.4998
2535.4,0.83918
2536.8,3.424424
2538.1,4.74562
2539.4,4.402026
2540.7,4.16136
2542,3.72658
2543.3,3.9903
2544.6,4.05596
2545.9,4.723278
2547.2,2.680222
2548.6,5.053038
2549.9,5.27302
2551.2,4.08508
2552.5,4.715312
2553.8,3.36848
2555.1,3.68044
2556.4,5.37266
2557.7,2.22542
2559,5.075318
2560.3,7.05246
2561.6,5.92994
2562.9,5.03982
2564.2,6.44746
2565.5,6.69658
2566.8,4.889754
2568.1,7.4268
2569.4,6.271168
2570.7,5.6131
2572,5.253272
2573.3,4.5116
2574.6,5.97332
2575.9,5.54054
2577.1,5.91012
2578.4,5.48353
2579.7,5.4304592
2581,6.0552392
2582.3,6.09094
2583.6,6.84604
2584.9,8.92594
2586.2,2.8015484
2587.5,5.977258
2588.7,3.73555
2590,6.5655
2591.3,4.7232
2592.6,7.24822
2593.9,4.254352
2595.2,5.63096
2596.4,4.667664
2597.7,5.617132
2599,2.59141
2600.3,4.070954
2601.6,4.90486
2602.8,6.16786
2604.1,6.1069
2605.4,4.22322
2606.7,4.35478
2608,4.993848
2609.2,2.27206
2610.5,4.10874
2611.8,3.66836
2613,4.237946
2614.3,1.86604
2615.6,1.40138
2616.9,1.600276
2618.1,3.202886
2619.4,2.711562
2620.7,4.77442
2621.9,4.17172
2623.2,0.95277
2624.5,2.447866
2625.7,0.742274
2627,-1.05448
2628.3,2.304682
2629.5,0
2630.8,1.264038
2632.1,-1.644716
2633.3,2.3808
2634.6,2.181054
2635.8,-0.052716
2637.1,0.25946
2638.4,-0.38078
2639.6,-0.5476213
2640.9,-0.0344600000000002
2642.1,-1.337554
2643.4,0.236948
2644.6,-0.14333
2645.9,-0.5143092
2647.2,-2.43846
2648.4,-0.0320839999999999
2649.7,-0.2692
2650.9,-2.803986
2652.2,-3.32422
2653.4,-2.30188
2654.7,-1.722924
2655.9,-0.586464
2657.2,-2.0245736
2658.4,-1.6157
2659.7,-2.744768
2660.9,-2.0442468
2662.2,-0.827178
2663.4,-3.575012
2664.6,0.958218
2665.9,-3.232052
2667.1,-1.911506
2668.4,-3.4250202
2669.6,-1.240182
2670.9,-1.393204
2672.1,-1.11573
2673.3,-1.184954
2674.6,-1.69226
2675.8,-2.3677
2677.1,-1.359912
2678.3,-2.80864
2679.5,-1.8012496
2680.8,-2.80216
2682,-3.29902
2683.2,-3.70085
2684.5,-3.6658
2685.7,-2.538868
2686.9,-2.61622
2688.2,-0.635262
2689.4,-0.06443
2690.6,-2.812912
2691.9,-0.62774
2693.1,-4.07842
2694.3,-2.064464
2695.5,-0.7759
2696.8,-2.84018
2698,-3.2767084
2699.2,-2.25012
2700.4,-1.9363208
2701.7,-1.962622
2702.9,-1.911848
2704.1,-3.238146
2705.3,-4.865006
2706.6,-2.441766
2707.8,-2.30026
2709,-2.6249596
2710.2,-1.341786
2711.4,-3.234002
2712.6,-3.254566
2713.9,-1.661612
2715.1,0.25978
2716.3,-1.4745
2717.5,-2.40996
2718.7,-1.500568
2719.9,-3.125336
2721.2,-1.15399
2722.4,-2.074
2723.6,-1.581906
2724.8,-2.15231
2726,0
2727.2,-1.466162
2728.4,-2.28876
2729.6,-0.61436
2730.8,-1.925788
2732,-0.208256
2733.3,0.56054
2734.5,-0.984526
2735.7,-1.417752
2736.9,-0.8022632
2738.1,-0.0622119999999999
2739.3,-0.0325759999999999
2740.5,0.58822
2741.7,0.0563599999999999
2742.9,-0.231522
2744.1,0.0658752000000002
2745.3,-0.6412
2746.5,0.51862
2747.7,-4.016862
2748.9,0.144848
2750.1,-0.17572
2751.3,-0.50338
2752.5,0.40464
2753.7,-0.553032
2754.9,1.18394
2756,-1.18027
2757.2,3.4234
2758.4,-1.703818
2759.6,0.878878
2760.8,1.53378
2762,1.436994
2763.2,0.56768
2764.4,3.08188
2765.6,3.48158
2766.8,3.744038
2767.9,2.5647
2769.1,2.426662
2770.3,4.923616
2771.5,4.321898
2772.7,4.080592
2773.9,3.833992
2775.1,5.52356
2776.2,5.944084
2777.4,3.08382
2778.6,1.624408
2779.8,3.71709
2781,5.53206
2782.1,3.8517
2783.3,2.353386
2784.5,4.29866
2785.7,5.013994
2786.8,5.702014
2788,5.77878
2789.2,2.060372
2790.4,2.661988
2791.5,2.12254
2792.7,3.48032
2793.9,2.575462
2795.1,3.31302
2796.2,1.900072
2797.4,1.839968
2798.6,2.55058
2799.7,1.28636
2800.9,1.6840086
2802.1,2.58684
2803.2,0.4585
2804.4,-1.762636
2805.6,2.11516
2806.7,0.283904
2807.9,-0.148826
2809.1,0.497074
2810.2,1.507884
2811.4,1.19372
2812.6,-1.03232
2813.7,-0.398282
2814.9,1.64464
2816,0.439142
2817.2,2.113866
2818.4,0
2819.5,1.70052
2820.7,-0.21982
2821.8,1.066368
2823,0.3913924
2824.1,0.70784
2825.3,-0.129042
2826.4,-0.280312
2827.6,1.1528
2828.7,-0.3373
2829.9,0.96598
2831,-0.690862
2832.2,0.3335704
2833.3,1.6321324
2834.5,-0.719358
2835.6,0.86158
2836.8,1.077204
2837.9,-0.4371524
2839.1,1.709364
2840.2,-1.53678
2841.4,0.0322800000000001
2842.5,0.6911
2843.7,0.828714
2844.8,-1.341008
2845.9,0.595988
2847.1,0.1085906
2848.2,-0.38568
2849.4,1.95974
2850.5,-1.303092
2851.7,-1.038284
2852.8,-2.000692
2853.9,0.184296
2855.1,-2.075868
2856.2,0.430664
2857.3,0.89966
2858.5,-1.0681
2859.6,-1.356168
2860.7,0.649422
2861.9,-2.9369948
2863,-0.55882
2864.1,-0.22874
2865.3,-3.544106
2866.4,-3.610644
2867.5,-1.622
2868.7,0.4729358
2869.8,0.520631
2870.9,-1.08125
2872,-0.115874
2873.2,-1.073164
2874.3,-0.91112
2875.4,-0.70978
2876.5,0.460854
2877.7,0.65756
2878.8,3.27626
2879.9,0.05094
2881,-0.04775
2882.2,2.511236
2883.3,3.90064
2884.4,3.16442
2885.5,5.20948
2886.6,4.88226
2887.8,2.2931634
2888.9,3.046696
2890,8.17812
2891.1,8.32014
2892.2,9.8462
2893.3,8.99168
2894.4,10.64622
2895.6,12.95392
2896.7,10.27396
2897.8,12.60226
2898.9,12.7788
2900,15.1768
2901.1,16.453
2902.2,18.3418
2903.3,19.1004
2904.4,21.278
2905.6,23.5686
2906.7,23.999
2907.8,25.6018
2908.9,28.1226
2910,31.5652
2911.1,33.2248
2912.2,35.8558
2913.3,36.5278
2914.4,36.7724
2915.5,40.461
2916.6,38.9308
2917.7,41.1524
2918.8,44.7488
2919.9,47.3388
2921,52.853
2922.1,54.896
2923.2,52.466
2924.3,54.0384
2925.4,55.0308
2926.5,58.2932
2927.6,61.5268
2928.7,60.8962
2929.8,64.2806
2930.8,67.6458
2931.9,66.9396
2933,70.9538
2934.1,71.9804
2935.2,70.2968
2936.3,72.162
2937.4,73.1076
2938.5,77.9098
2939.6,73.7446
2940.6,79.8748
2941.7,81.459
2942.8,77.0886
2943.9,80.636
2945,81.113
2946.1,79.5682
2947.2,80.9792
2948.2,81.8316
2949.3,79.3874
2950.4,77.0136
2951.5,76.529
2952.6,74.2936
2953.6,71.9244
2954.7,69.2378
2955.8,65.8478
2956.9,67.0282
2957.9,64.2524
2959,59.3312
2960.1,58.3948
2961.2,53.7106
2962.2,51.5694
2963.3,52.6394
2964.4,48.7762
2965.5,48.117
2966.5,42.7872
2967.6,39.979
2968.7,36.7
2969.7,34.8682
2970.8,35.558
2971.9,35.5358
2973,31.2194
2974,35.3646
2975.1,32.9664
2976.2,30.0474
2977.2,27.0342
2978.3,27.979
2979.3,28.3428
2980.4,25.573
2981.5,25.9362
2982.5,24.8996
2983.6,23.9858
2984.7,25.4058
2985.7,26.5122
2986.8,21.7646
2987.8,26.1976
2988.9,24.8302
2989.9,22.4752
2991,27.104
2992.1,26.5456
2993.1,26.586
2994.2,23.7308
2995.2,27.1344
2996.3,26.6454
2997.3,26.0124
2998.4,28.2018
2999.4,27.3616
3000.5,26.2222
3001.5,28.512
3002.6,28.3978
3003.6,27.5442
3004.7,28.0238
3005.7,30.5508
3006.8,29.9108
3007.8,32.2004
3008.9,34.0672
3009.9,33.9418
3011,33.1164
3012,34.8466
3013,35.2186
3014.1,37.5976
3015.1,36.9644
3016.2,36.7102
3017.2,42.1988
3018.2,40.0866
3019.3,39.5738
3020.3,41.213
3021.4,42.8554
3022.4,44.7262
3023.4,45.4374
3024.5,44.4134
3025.5,46.9896
3026.5,45.5472
3027.6,48.7498
3028.6,49.0914
3029.6,49.8884
3030.7,53.2314
3031.7,53.4412
3032.7,54.4924
3033.8,56.8968
3034.8,55.4664
3035.8,57.0592
3036.9,58.727
3037.9,58.6108
3038.9,59.0972
3039.9,61.6616
3041,63.4484
3042,64.5128
3043,65.729
3044,65.5414
3045.1,70.2202
3046.1,70.0244
3047.1,71.7314
3048.1,71.948
3049.2,71.2896
3050.2,72.8784
3051.2,75.5332
3052.2,73.5146
3053.2,78.719
3054.3,77.617
3055.3,80.6442
3056.3,80.0682
3057.3,84.977
3058.3,82.7786
3059.3,85.902
3060.3,88.4782
3061.4,85.3948
3062.4,89.4548
3063.4,90.8268
3064.4,91.9104
3065.4,93.9232
3066.4,96.0946
3067.4,95.6906
3068.4,98.4684
3069.5,97.4206
3070.5,101.5852
3071.5,104.0208
3072.5,103.3914
3073.5,104.3946
3074.5,105.1038
3075.5,107.2624
3076.5,109.2356
3077.5,111.212
3078.5,113.086
3079.5,116.93
3080.5,116.854
3081.5,119.04
3082.5,120.492
3083.5,123.962
3084.5,126.058
3085.5,122.952
3086.5,126.398
3087.5,126.658
3088.5,128.06
3089.5,130.014
3090.5,129.4
3091.5,135.304
3092.5,134.574
3093.5,138.128
3094.5,138.986
3095.5,143.436
3096.4,143.486
3097.4,142.984
3098.4,143.732
3099.4,149.724
3100.4,154.42
3101.4,153.232
3102.4,155.328
3103.4,157.114
3104.4,152.472
3105.3,160.624
3106.3,163.996
3107.3,163.924
3108.3,165.112
3109.3,168.894
3110.3,169.822
3111.3,171.09
3112.2,174.35
3113.2,177.756
3114.2,178.752
3115.2,183.674
3116.2,182.398
3117.1,188.826
3118.1,188.426
3119.1,189.32
3120.1,190.682
3121,192.324
3122,194.412
3123,194.292
3124,198.73
3124.9,199.978
3125.9,201.292
3126.9,204.858
3127.9,208.508
3128.8,208.564
3129.8,209.354
3130.8,212.392
3131.7,213.278
3132.7,217.286
3133.7,218.18
3134.7,218.408
3135.6,221.594
3136.6,221.168
3137.6,223.198
3138.5,224.742
3139.5,227.544
3140.4,228.208
3141.4,231.842
3142.4,232.506
3143.3,233.846
3144.3,234.512
3145.3,237.898
3146.2,238.582
3147.2,240.706
3148.1,241.44
3149.1,244.982
3150.1,245.9
3151,247.714
3152,248.154
3152.9,248.256
3153.9,250.986
3154.8,251.524
3155.8,251.33
3156.7,251.942
3157.7,253.898
3158.6,256.6
3159.6,248.316
3160.6,259.288
3161.5,260.814
3162.5,262.65
3163.4,260.572
3164.4,262.618
3165.3,259.174
3166.2,260.38
3167.2,265.476
3168.1,266.676
3169.1,262.582
3170,267.37
3171,268.02
3171.9,267.118
3172.9,269.468
3173.8,265.068
3174.7,267.354
3175.7,270.152
3176.6,270.186
3177.6,267.762
3178.5,267.076
3179.5,272.906
3180.4,270.118
3181.3,268.092
3182.3,271.514
3183.2,273.562
3184.1,273.956
3185.1,270.148
3186,269.498
3186.9,272.542
3187.9,275.706
3188.8,274.376
3189.7,271.592
3190.7,272.002
3191.6,272.532
3192.5,272.866
3193.5,272.444
3194.4,270.236
3195.3,269.284
3196.3,269.03
3197.2,271.594
3198.1,268.868
3199,267.49
3200,265.646
3200.9,263.452
3201.8,267.334
3202.7,268.318
3203.7,261.39
3204.6,259.684
3205.5,262.736
3206.4,258.662
3207.3,262.096
3208.3,257.612
3209.2,254.412
3210.1,253.534
3211,249.15
3211.9,252.442
3212.9,249.63
3213.8,245.412
3214.7,242.936
3215.6,242.81
3216.5,243.394
3217.4,240.022
3218.4,237.366
3219.3,234.788
3220.2,230.996
3221.1,228.702
3222,225.666
3222.9,225.53
3223.8,221.022
3224.7,220.818
3225.6,218.47
3226.6,216.188
3227.5,213.176
3228.4,214.054
3229.3,210.752
3230.2,208.814
3231.1,201.26
3232,196.022
3232.9,193.028
3233.8,187.338
3234.7,187.112
3235.6,185.116
3236.5,179.878
3237.4,176.854
3238.3,175.818
3239.2,166.816
3240.1,162.602
3241,160.128
3241.9,155.358
3242.8,153.446
3243.7,143.108
3244.6,140.1
3245.5,132.328
3246.4,125.162
3247.3,122.07
3248.2,114.554
3249.1,104.77
3250,92.4258
3250.9,79.547
3251.8,76.141
3252.7,59.4234
3253.5,46.4338
3254.4,33.6868
3255.3,12.1498
3256.2,-8.40542
