250.34,1.609946
252.57,-1.02148
254.8,0
257.03,-10.37794
259.26,-1.256806
261.48,4.9091
263.71,0.93602
265.94,-0.96752
268.16,-5.5678
270.39,-0.26682
272.61,-2.61602
274.84,-0.6767
277.06,0.182224
279.28,2.80804
281.51,-1.47398
283.73,6.15
285.95,2.289906
288.17,-2.06694
290.39,3.871582
292.61,3.314
294.83,-2.99402
297.05,6.31946
299.27,3.2091
301.48,7.546188
303.7,4.5317
305.91,4.412018
308.13,7.255298
310.35,1.11488
312.56,-0.47672
314.77,-2.94442
316.99,-8.26636
319.2,-1.48792
321.41,-2.70168
323.62,-3.32524
325.83,0.047874
328.04,-5.55206
330.25,-4.88758
332.46,0.67204834
334.67,-0.87266
336.88,11.75648
339.08,3.863516
341.29,8.850784
343.5,22.27882
345.7,47.5738
347.91,99.88
350.11,237.3
352.31,452.454
354.52,583.382
356.72,508.87
358.92,317.912
361.12,174.078
363.32,100.3548
365.52,70.3034
367.72,49.977
369.92,31.0888
372.12,29.846
374.32,40.8804
376.51,71.0922
378.71,77.7136
380.9,64.2966
383.1,36.4532
385.29,19.5678
387.49,11.99414
389.68,7.21776
391.87,8.1774
394.07,0.534908
396.26,-0.480706
398.45,-0.11942
400.64,6.687016
402.83,12.7657
405.02,21.1964
407.21,38.401
409.39,61.2532
411.58,143.068
413.77,392.516
415.95,663.944
418.14,700
420.32,459.338
422.51,223.992
424.69,121.756
426.87,90.8696
429.06,87.5238
431.24,76.053
433.42,53.597
435.6,25.8702
437.78,10.42844
439.96,2.5186
442.14,-0.0453394
444.31,20.1592
446.49,41.6042
448.67,44.3122
450.84,43.6294
453.02,20.8002
455.19,1.30258
457.37,6.365688
459.54,-1.069706
461.71,-4.8821
463.89,-2.755898
466.06,-8.82624
468.23,-3.36712
470.4,-9.12548
472.57,-10.29956
474.74,-8.142016
476.91,-5.185
479.07,-9.118042
481.24,1.99674
483.41,5.614736
485.57,7.6483
487.74,8.087662
489.9,14.66178
492.07,4.098288
494.23,-2.054528
496.4,-0.325746
498.56,-7.85076
500.72,-6.1905652
502.88,-0.86446
505.04,-5.67548
507.2,-6.165862
509.36,-3.015848
511.52,-3.120278
513.68,-4.567112
515.83,-1.946113
517.99,7.24486
520.14,-5.441982
522.3,-3.10906
524.45,1.37401
526.61,3.360914
528.76,1.103672
530.91,1.13994
533.07,4.1656
535.22,4.138758
537.37,2.37764
539.52,6.8783
541.67,2.9961
543.82,-0.541166
545.97,3.1708
548.11,4.90462
550.26,-0.702746
552.41,-2.072674
554.55,-5.98156
556.7,2.714812
558.84,0.537766
560.98,8.571802
563.13,12.82472
565.27,14.43574
567.41,23.5838
569.55,44.9172
571.69,77.9032
573.83,147.164
575.97,209.984
578.11,265.102
580.25,339.162
582.39,612.632
584.52,1145.418
586.66,1558.64
588.79,1460.86
590.93,970.034
593.06,523.59
595.19,270.81
597.33,146.826
599.46,85.8136
601.59,46.4876
603.72,23.5708
605.85,17.65042
607.98,-0.00954994
610.11,2.57664
612.24,-2.81272
614.36,-1.31996
616.49,-6.918
618.62,-3.107232
620.74,-4.545444
622.87,0.7651
624.99,0.6162364
627.11,-3.580192
629.24,-0.845646
631.36,-10.98572
633.48,-5.47704
635.6,-1.7121
637.72,-0.48026
639.84,-1.16886
641.96,0.098725
644.08,-5.12993
646.2,-5.6237
648.31,-8.57202
650.43,-11.03244
652.54,-8.06422
654.66,-14.299
656.77,-13.53056
658.89,-12.05726
661,-10.81108
663.11,-13.74914
665.22,-12.474
667.33,-17.331
669.44,-20.751
671.55,-19.74866
673.66,-24.0432
675.77,-25.0328
677.88,-20.5552
679.98,-18.5424
682.09,-16.547198
684.2,-16.85502
686.3,-14.84972
688.4,-13.56114
690.51,-6.08334
692.61,-3.17027
694.71,-4.54226
696.81,-2.910448
698.92,-2.59936
701.02,1.9788
703.11,4.969259
705.21,11.74964
707.31,7.40962
709.41,16.4432
711.51,17.25676
713.6,17.353
715.7,14.87026
717.79,11.66344
719.89,11.2629642
721.98,8.492904
724.07,-0.48466
726.16,7.014204
728.25,5.16244
730.35,6.62866
732.44,13.5504
734.52,27.7008
736.61,43.766
738.7,64.169
740.79,94.3698
742.87,131.208
744.96,181.41
747.05,233.094
749.13,262.528
751.21,257.598
753.3,225.816
755.38,168.974
757.46,118.968
759.54,83.0534
761.62,55.1444
763.7,35.6638
765.78,22.9772
767.86,9.69738
769.94,1.7514
772.01,-3.53068
774.09,0.841454
776.17,-2.284464
778.24,-9.23587
780.32,-1.5024
782.39,-5.05978
784.46,0.27618
786.53,0.0686080000000001
788.61,0.82922
790.68,3.3452
792.75,6.500532
794.82,6.107368
796.89,9.302428
798.95,2.5801
801.02,6.9028
803.09,8.50358
805.15,17.968
807.22,29.2342
809.28,69.1372
811.35,167.634
813.41,265.808
815.47,268.766
817.53,166.814
819.6,83.5146
821.66,42.976
823.72,19.9124
825.78,5.72774
827.83,5.250152
829.89,4.875076
831.95,5.61833
834,4.137834
836.06,0.32772
838.12,1.652108
840.17,7.57584
842.22,3.6971
844.28,8.15114
846.33,4.126266
848.38,3.220808
850.43,6.63736
852.48,3.06892
854.53,6.28998
856.58,3.79688
858.63,5.761356
860.67,9.77236
862.72,8.52952
864.77,8.52816
866.81,10.06336
868.86,4.75388
870.9,3.72628
872.94,4.093434
874.98,-1.1208536
877.03,-4.47398
879.07,-1.78306
881.11,1.61626
883.15,2.324608
885.19,2.73658
887.22,3.764332
889.26,2.34312
891.3,-0.17702
893.33,1.9126472
895.37,2.840206
897.4,-2.77328
899.44,0
901.47,1.9783724
903.5,-0.95294
905.54,0.86306
907.57,1.10324
909.6,-0.445203999999999
911.63,-3.40894
913.66,-0.161082
915.68,3.412448
917.71,0.0451000000000004
919.74,-4.620388
921.76,-0.0373459999999998
923.79,-7.11664
925.82,3.90442
927.84,4.68188
929.86,-0.30934
931.89,3.91372
933.91,5.05111
935.93,7.55164
937.95,8.17534
939.97,5.06252
941.99,0.49208
944.01,-0.230758
946.02,-3.61052
948.04,2.982496
950.06,-0.357879
952.07,1.217524
954.09,5.71478
956.1,7.92482
958.12,11.361816
960.13,8.366674
962.14,3.79828
964.15,1.438234
966.16,1.141586
968.17,-3.7940198
970.18,0.37135468
972.19,-0.8134758
974.2,1.103926
976.2,2.555846
978.21,0.53842
980.22,2.254424
982.22,4.59448
984.22,4.97722
986.23,7.45556
988.23,0.472006
990.23,4.9073
992.23,5.896094
994.24,3.57046
996.23,7.01448
998.23,7.4055
1000.2,8.68262
1002.2,14.76378
1004.2,11.55586
1006.2,9.90216
1008.2,18.9474
1010.2,17.03
1012.2,13.79864
1014.2,18.4716
1016.2,18.9308
1018.2,17.5072
1020.2,15.4249
1022.2,26.8342
1024.2,27.2516
1026.1,34.5
1028.1,49.5476
1030.1,85.678
1032.1,169.086
1034.1,227.788
1036.1,205.27
1038.1,126.952
1040.1,67.993
1042,49.387
1044,36.6368
1046,29.4494
1048,29.215
1050,30.2858
1051.9,27.5394
1053.9,27.573
1055.9,21.4306
1057.9,19.96298
1059.9,18.0152
1061.8,15.54258
1063.8,14.36492
1065.8,17.25738
1067.8,13.44592
1069.7,7.75442
1071.7,11.57292
1073.7,17.3926
1075.6,17.06192
1077.6,12.2211
1079.6,12.90584
1081.5,10.12924
1083.5,5.3514
1085.5,6.55066
1087.5,6.35632
1089.4,1.43542
1091.4,-1.91728
1093.3,-0.2678
1095.3,2.16562
1097.3,-0.72404372
1099.2,3.06806
1101.2,0.0992599999999998
1103.2,-1.234784
1105.1,0.0718
1107.1,-3.033916
1109,-1.79243202
1111,-2.422208
1113,-0.384188
1114.9,1.030592
1116.9,-2.22232634
1118.8,-8.79306
1120.8,0.6564372
1122.7,-0.37642
1124.7,2.1918
1126.6,3.402693
1128.6,1.33027
1130.5,-0.0513200000000001
1132.5,-0.5495
1134.4,0.57672
1136.4,3.89348
1138.3,8.6347
1140.3,3.317702
1142.2,3.51502
1144.2,6.61658
1146.1,8.51316
1148.1,4.88878
1150,11.04622
1151.9,5.78824
1153.9,5.66146
1155.8,8.5184
1157.8,9.50986
1159.7,6.12262
1161.6,7.84954
1163.6,11.4301
1165.5,16.66176
1167.5,10.93652
1169.4,16.8998
1171.3,21.9532
1173.3,20.319
1175.2,19.583
1177.1,19.321
1179.1,20.2724
1181,19.9194
1182.9,22.74
1184.9,23.4216
1186.8,24.2788
1188.7,25.649
1190.6,34.182
1192.6,35.79
1194.5,39.5612
1196.4,37.5852
1198.4,42.2512
1200.3,39.7478
1202.2,43.2238
1204.1,41.3822
1206,43.8592
1208,47.9672
1209.9,51.1276
1211.8,49.1584
1213.7,55.2776
1215.6,59.3888
1217.6,57.1838
1219.5,58.6022
1221.4,57.3532
1223.3,59.5472
1225.2,56.3236
1227.1,58.2286
1229.1,59.7394
1231,59.1748
1232.9,56.362
1234.8,60.9994
1236.7,60.1298
1238.6,63.2554
1240.5,66.696
1242.4,71.7916
1244.3,76.8402
1246.2,80.18
1248.1,84.1158
1250.1,83.0922
1252,89.3798
1253.9,91.2148
1255.8,99.0696
1257.7,114.88
1259.6,127.918
1261.5,141.55
1263.4,159.588
1265.3,182.262
1267.2,197.43
1269.1,217.944
1271,241.958
1272.9,254.51
1274.8,267.594
1276.6,268.862
1278.5,259.04
1280.4,253.74
1282.3,273.182
1284.2,286.83
1286.1,258.036
1288,200.658
1289.9,158.32
1291.8,133.422
1293.7,113.033
1295.6,105.7474
1297.4,95.6038
1299.3,93.8688
1301.2,85.2082
1303.1,87.5842
1305,81.787
1306.9,81.018
1308.7,74.3056
1310.6,75.8338
1312.5,65.5904
1314.4,73.3338
1316.3,72.9392
1318.1,73.6876
1320,67.3702
1321.9,69.1958
1323.8,70.3426
1325.7,68.5968
1327.5,71.1604
1329.4,69.6722
1331.3,69.7552
1333.1,68.6076
1335,65.8218
1336.9,71.1804
1338.8,71.6306
1340.6,73.0576
1342.5,75.8512
1344.4,81.8928
1346.2,91.644
1348.1,97.8212
1350,102.1542
1351.8,108.403
1353.7,114.978
1355.6,111.214
1357.4,121.718
1359.3,122.402
1361.1,129.158
1363,143.506
1364.9,165.268
1366.7,185.462
1368.6,215.058
1370.4,252.858
1372.3,301.272
1374.2,373.1
1376,474.446
1377.9,603.18
1379.7,744.418
1381.6,841.592
1383.4,878.348
1385.3,857.152
1387.1,784.776
1389,647.434
1390.8,479.118
1392.7,364.5
1394.5,288.16
1396.4,239.896
1398.2,219.632
1400.1,185.892
1401.9,171.008
1403.8,151.83
1405.6,130.44
1407.4,121.978
1409.3,107.322
1411.1,88.62
1413,75.1292
1414.8,63.317
1416.6,58.2424
1418.5,45.72
1420.3,45.826
1422.2,34.7612
1424,37.1018
1425.8,28.0612
1427.7,25.287
1429.5,21.3804
1431.3,20.04346
1433.2,12.25578
1435,8.59734
1436.8,12.3657
1438.7,12.8757
1440.5,6.473476
1442.3,5.90966
1444.1,4.831592
1446,8.65802
1447.8,6.904254
1449.6,8.09462
1451.4,-0.55277
1453.3,7.685216
1455.1,2.4137588
1456.9,-1.339432
1458.7,-2.21704
1460.6,-2.06286
1462.4,-0.12178
1464.2,-1.67486
1466,-1.891566
1467.8,-0.227868
1469.6,-3.86858
1471.5,-1.85234
1473.3,-3.47808
1475.1,-8.12636
1476.9,-6.93866
1478.7,-3.44742
1480.5,-2.97386
1482.4,1.216164
1484.2,3.467038
1486,-3.14288
1487.8,-3.1539
1489.6,-3.478704
1491.4,-0.25756
1493.2,-4.89796
1495,-5.63342
1496.8,-3.8805
1498.6,-2.97136
1500.4,-3.98452
1502.2,-4.28734
1504,2.87832
1505.8,-3.42682
1507.6,-2.11668
1509.4,0.6304
1511.2,-1.23113
1513,-2.2088
1514.8,-1.9852882
1516.6,-0.0293
1518.4,-0.52738
1520.2,1.805914
1522,2.74388
1523.8,-2.016286
1525.6,-1.03996
1527.4,-3.4885
1529.2,-1.188222
1531,-2.38196
1532.8,-2.399968
1534.6,-2.1396
1536.4,1.343424
1538.2,-0.73831
1539.9,2.441812
1541.7,1.36468
1543.5,5.071064
1545.3,3.41358
1547.1,13.1222
1548.9,11.08968
1550.7,20.03
1552.4,25.4278
1554.2,28.9792
1556,31.7468
1557.8,29.024
1559.6,19.0976
1561.3,24.764
1563.1,22.1082
1564.9,28.3792
1566.7,32.1894
1568.4,33.1996
1570.2,36.5628
1572,37.7346
1573.8,42.5004
1575.5,46.7006
1577.3,52.2124
1579.1,57.2118
1580.9,62.3294
1582.6,64.8492
1584.4,71.5696
1586.2,76.5574
1587.9,83.7774
1589.7,87.087
1591.5,93.0844
1593.2,100.144
1595,107.04
1596.8,108.974
1598.5,114.636
1600.3,125.23
1602,127.662
1603.8,136.326
1605.6,146.888
1607.3,152.534
1609.1,162.016
1610.8,163.736
1612.6,171.184
1614.4,175.44
1616.1,181.83
1617.9,185.012
1619.6,194.674
1621.4,201.648
1623.1,205.524
1624.9,212.722
1626.6,214.378
1628.4,220.438
1630.1,225.102
1631.9,225.606
1633.6,230.922
1635.4,233.898
1637.1,237.174
1638.9,237.142
1640.6,235.138
1642.4,236.172
1644.1,236.12
1645.8,236.746
1647.6,241.066
1649.3,233.126
1651.1,234.408
1652.8,230.69
1654.6,230.504
1656.3,228.576
1658,222.166
1659.8,219.696
1661.5,216.456
1663.2,214.562
1665,211.37
1666.7,204.056
1668.4,199.676
1670.2,199.222
1671.9,195.48
1673.6,191.814
1675.4,187.698
1677.1,185.62
1678.8,181.028
1680.5,176.378
1682.3,168.762
1684,162.37
1685.7,163.604
1687.5,159.456
1689.2,161.674
1690.9,160.156
1692.6,151.256
1694.3,148.44
1696.1,152.538
1697.8,144.432
1699.5,145.28
1701.2,141.792
1702.9,136.844
1704.7,132.374
1706.4,138.664
1708.1,135.31
1709.8,136.868
1711.5,130.97
1713.2,130.104
1714.9,123.64
1716.7,124.568
1718.4,118.754
1720.1,121.26
1721.8,116.286
1723.5,113.834
1725.2,103.0084
1726.9,107.9202
1728.6,100.921
1730.3,99.4664
1732,94.6724
1733.7,81.8008
1735.4,85.8348
1737.1,82.8304
1738.8,73.6046
1740.6,65.8144
1742.3,61.661
1744,55.4572
1745.7,52.018
1747.3,43.8626
1749,38.3592
1750.7,37.0486
1752.4,32.9526
1754.1,31.4016
1755.8,27.495
1757.5,23.0776
1759.2,24.5498
1760.9,17.7728
1762.6,16.1308
1764.3,18.541
1766,15.0138
1767.7,14.2166
1769.4,8.55016
1771.1,7.55496
1772.7,9.06254
1774.4,9.41068
1776.1,11.41882
1777.8,8.27954
1779.5,5.76655
1781.2,6.61402
1782.8,1.61704
1784.5,7.90814
1786.2,0.77332
1787.9,-0.65284
1789.6,1.9325668
1791.2,0.87984
1792.9,0.225626
1794.6,-1.07686
1796.3,1.4206
1798,-2.083258
1799.6,0.718934
1801.3,0.20998
1803,0.483662
1804.7,-1.6192
1806.3,-4.1654
1808,-1.7815
1809.7,-7.1171
1811.3,-3.62232
1813,-1.76792
1814.7,-1.59962
1816.3,-0.610926
1818,0.95732
1819.7,0.83392
1821.3,1.618774
1823,-1.77168
1824.7,-1.690434
1826.3,3.510732
1828,1.347376
1829.7,-2.3241866
1831.3,-0.942796
1833,-2.14606
1834.6,-1.33076
1836.3,2.7851
1838,1.8756
1839.6,5.86728
1841.3,3.54776
1842.9,1.734864
1844.6,3.19338
1846.2,3.0645178
1847.9,3.60914
1849.5,0.27978
1851.2,0.436996
1852.8,5.35778
1854.5,3.55624
1856.1,7.852906
1857.8,6.052242
1859.4,4.870258
1861.1,3.11964
1862.7,-1.69226
1864.4,-3.53164
1866,-1.1470022
1867.7,2.078654
1869.3,2.44104
1871,2.24444
1872.6,9.31168
1874.2,6.34516
1875.9,3.11557
1877.5,4.61782
1879.2,0
1880.8,4.309264
1882.4,-3.45698
1884.1,-1.493299
1885.7,2.12041
1887.3,4.02518
1889,1.0026
1890.6,-1.574626
1892.2,2.471298
1893.9,3.42592
1895.5,-5.33652
1897.1,2.10852
1898.8,4.834174
1900.4,1.17864
1902,1.61692
1903.7,0.680176
1905.3,1.88981
1906.9,-1.56786
1908.5,-0.241692
1910.2,1.633906
1911.8,-3.54806
1913.4,2.595668
1915,-1.5996484
1916.7,2.59932
1918.3,-0.54776
1919.9,2.744238
1921.5,0.924588
1923.1,-1.15962
1924.8,1.0853
1926.4,0.233158
1928,-0.04312
1929.6,-2.6781874
1931.2,1.445678
1932.8,-2.451732
1934.4,0.767628
1936.1,-1.343414
1937.7,-0.20694
1939.3,-0.224934
1940.9,0.27306
1942.5,-1.01564
1944.1,-2.99556
1945.7,1.360932
1947.3,1.55977
1948.9,-0.842676
1950.5,0.972832
1952.1,-0.0443242
1953.8,3.93361
1955.4,-1.848418
1957,0.0251600000000002
1958.6,-2.52752
1960.2,-3.06266
1961.8,2.781982
1963.4,-0.809
1965,-0.80335
1966.6,-2.038366
1968.2,-1.607748
1969.8,-0.54159
1971.4,0.6338
1973,2.548882
1974.5,1.62266
1976.1,-2.230618
1977.7,0.0901100000000001
1979.3,-0.85652
1980.9,-3.89276
1982.5,-4.684066
1984.1,-3.36314
1985.7,-0.263818
1987.3,-2.473076
1988.9,-2.16388
1990.5,-1.076974
1992,-1.79562
1993.6,1.795302
1995.2,-2.788466
1996.8,-0.904906
1998.4,-1.676096
2000,-4.33442
2001.6,0.29262
2003.1,-0.0624999999999998
2004.7,0.0647840000000001
2006.3,2.076992
2007.9,-3.88372
2009.5,0.98018
2011,-0.16344
2012.6,1.882754
2014.2,-1.8971972
2015.8,-0.6703454
2017.3,2.15072
2018.9,0.1995814
2020.5,-1.06099
2022.1,3.08928
2023.6,2.323162
2025.2,3.03958
2026.8,-1.529522
2028.3,-2.13646
2029.9,-0.634362
2031.5,-1.627796
2033,1.869035
2034.6,1.071462
2036.2,-3.02804
2037.7,2.008414
2039.3,-0.89642
2040.9,0.23011
2042.4,-4.64088
2044,-1.746526
2045.6,-2.29354
2047.1,-1.58038
2048.7,2.108118
2050.2,-2.87073
2051.8,1.189256
2053.4,0.381024
2054.9,0.169158
2056.5,-0.93616
2058,0.63858
2059.6,-0.653506
2061.1,2.107852
2062.7,1.57094
2064.2,-1.30829104
2065.8,0.5716
2067.3,-1.477412
2068.9,-0.22506
2070.4,-3.221794
2072,-2.543343
2073.5,-3.55002
2075.1,-2.21696
2076.6,-0.04274
2078.2,0.0387000000000001
2079.7,0.244652
2081.3,0.13852
2082.8,1.0899
2084.4,1.365746
2085.9,5.40092
2087.4,3.51938
2089,1.463862
2090.5,2.03941
2092.1,0.943762
2093.6,-0.49
2095.1,3.98252782
2096.7,-0.45936
2098.2,0.30284
2099.7,1.344056
2101.3,5.59048
2102.8,0.457032
2104.3,2.039494
2105.9,3.73618
2107.4,5.32744
2108.9,5.05592
2110.5,1.803218
2112,3.08468
2113.5,2.080706
2115.1,5.27932
2116.6,4.3393
2118.1,3.34705
2119.6,5.19692
2121.2,3.46726
2122.7,5.33104
2124.2,1.265386
2125.7,3.25631
2127.3,5.872566
2128.8,6.630078
2130.3,9.3909
2131.8,7.9106
2133.3,15.11644
2134.9,24.868
2136.4,34.656
2137.9,45.8466
2139.4,53.268
2140.9,60.437
2142.4,56.4508
2144,40.7614
2145.5,23.998
2147,14.2047
2148.5,16.3266
2150,5.1351
2151.5,5.49496
2153,5.301034
2154.5,6.239452
2156,2.888522
2157.6,4.38007
2159.1,3.66424
2160.6,0.0406740000000002
2162.1,1.484864
2163.6,0.90518446
2165.1,-0.75788394
2166.6,2.628336
2168.1,-1.55608
2169.6,-4.547316
2171.1,3.82668
2172.6,3.7313
2174.1,1.980436
2175.6,4.777896
2177.1,-0.926776
2178.6,1.736548
2180.1,-0.454792
2181.6,-4.22996
2183.1,-1.198638
2184.6,-2.479552
2186.1,1.153258
2187.5,-1.6211
2189,-4.7188
2190.5,-1.24402
2192,0.3614
2193.5,-1.28702
2195,1.180022
2196.5,-3.32226
2198,1.354428
2199.5,-2.85308
2201,-2.380282
2202.4,-2.59275
2203.9,-1.9244
2205.4,-5.22144
2206.9,-3.857808
2208.4,1.35574
2209.9,2.50455
2211.3,-0.315284
2212.8,0.4770706
2214.3,-1.642458
2215.8,-2.335772
2217.3,-5.69488
2218.7,-1.41785
2220.2,-3.6428
2221.7,-1.7566
2223.2,-2.466152
2224.6,-5.65552
2226.1,-3.37728
2227.6,-2.4132882
2229.1,-3.599926
2230.5,-3.32332
2232,-0.408514
2233.5,-2.811744
2234.9,-1.230088
2236.4,-0.959804
2237.9,-2.080674
2239.3,-3.84896
2240.8,-2.18142
2242.3,-3.3985
2243.7,-0.5662692
2245.2,-4.543262
2246.7,-4.6892
2248.1,-7.177506
2249.6,-6.67692
2251.1,-3.805208
2252.5,-3.50678
2254,-3.163484
2255.4,-3.463592
2256.9,-2.16234
2258.3,-2.016732
2259.8,-1.0851512
2261.3,-3.4635626
2262.7,1.13944
2264.2,-4.738892
2265.6,-2.28398
2267.1,-2.224376
2268.5,-2.953526
2270,-2.483654
2271.4,-5.323444
2272.9,-1.94895
2274.3,0
2275.8,1.6645452
2277.2,-1.678466
2278.7,-3.04458
2280.1,0.821946
2281.6,-3.47586
2283,-2.1264372
2284.5,-4.49702
2285.9,-2.51712
2287.4,-4.31054
2288.8,-3.34548
2290.2,-1.95811
2291.7,-2.76484
2293.1,-3.689642
2294.6,-2.234302
2296,-2.96304
2297.4,-0.739366
2298.9,-2.1807
2300.3,-2.974278
2301.7,-0.69979
2303.2,-4.59784
2304.6,-1.18178
2306,-4.05152
2307.5,-1.45902
2308.9,-1.4654
2310.3,-0.646968
2311.8,1.1586
2313.2,2.07028
2314.6,-0.69746
2316.1,-0.019076
2317.5,-2.78554
2318.9,-3.63122
2320.3,0.22842
2321.8,4.857
2323.2,4.76518
2324.6,12.5596
2326,15.7424
2327.5,19.18678
2328.9,25.6806
2330.3,22.0988
2331.7,18.1448
2333.2,11.95012
2334.6,10.47868
2336,1.47435
2337.4,-0.7000428
2338.8,2.557394
2340.2,3.57116
2341.7,3.146462
2343.1,1.911886
2344.5,1.455192
2345.9,-0.15885
2347.3,-4.71788
2348.7,1.00718
2350.1,1.501028
2351.6,-1.27656
2353,2.080892
2354.4,0.2781
2355.8,-0.227668
2357.2,-0.65884
2358.6,-5.5818
2360,5.916758
2361.4,0.1759392
2362.8,0.526378
2364.2,3.05912
2365.6,-4.115934
2367,5.66576
2368.4,5.81087
2369.8,2.542086
2371.2,4.894664
2372.6,4.155346
2374,1.820362
2375.4,2.53944
2376.8,3.00486
2378.2,2.78014
2379.6,5.48576
2381,2.096374
2382.4,1.34746062
2383.8,4.2272
2385.2,1.4709
2386.6,4.059108
2388,-0.440348
2389.4,2.658518
2390.8,-0.343766
2392.1,2.71734
2393.5,1.71321
2394.9,3.9225658
2396.3,1.122208
2397.7,1.4617
2399.1,3.91412
2400.5,2.033034
2401.9,0.933348
2403.2,0.232838
2404.6,-0.749758
2406,-2.61586
2407.4,0.255886
2408.8,-2.15292
2410.2,1.671
2411.5,0.13606
2412.9,0.043156
2414.3,1.76486
2415.7,0
2417,0.9558
2418.4,0.814954
2419.8,0.7986346
2421.2,-0.57372
2422.5,-3.03622
2423.9,-0.00976000000000008
2425.3,-4.4999
2426.7,-0.166062
2428,1.7206618
2429.4,0.309224
2430.8,-4.92954
2432.1,0.425488
2433.5,0.84542
2434.9,-0.47344
2436.2,1.04714
2437.6,-0.1922816
2439,3.565642
2440.3,1.663966
2441.7,1.39682
2443.1,-0.2622984
2444.4,3.75
2445.8,-1.46616
2447.2,-0.915466
2448.5,2.377186
2449.9,-1.5216
2451.2,1.3932
2452.6,-1.86614
2454,1.52638
2455.3,5.24948
2456.7,-1.31156
2458,0.318728
2459.4,0.86368
2460.7,4.91068
2462.1,-1.55688
2463.4,4.718602
2464.8,4.38622
2466.1,3.6520436
2467.5,3.647928
2468.8,2.92122
2470.2,5.566892
2471.5,3.13205
2472.9,1.36892
2474.2,3.612958
2475.6,3.863152
2476.9,3.93268
2478.3,5.28828
2479.6,5.61384
2481,2.560302
2482.3,4.566984
2483.6,4.19068
2485,1.34134
2486.3,1.99612
2487.7,0.617278
2489,3.293706
2490.3,4.5535364
2491.7,3.89332
2493,1.96189
2494.4,5.1355
2495.7,4.42324
2497,0.000987199999999966
2498.4,5.569092
2499.7,4.833198
2501,2.1812566
2502.4,5.644454
2503.7,0.74342
2505,7.286438
2506.4,4.70776
2507.7,1.83368
2509,5.2988516
2510.3,4.423764
2511.7,4.66292
2513,3.66908
2514.3,2.8469
2515.6,3.021587
2517,2.59672
2518.3,1.84844
2519.6,5.27234
2520.9,0
2522.3,1.565786
2523.6,2.117
2524.9,2.4560052
2526.2,1.457646
2527.5,2.794768
2528.9,4.062804
2530.2,2.25188
2531.5,3.237352
2532.8,3.382174
2534.1,2.809068
2535.4,3.08806
2536.8,3.490252
2538.1,-0.615
2539.4,-0.157616
2540.7,2.7092
2542,1.173602
2543.3,2.972564
2544.6,3.563374
2545.9,3.76046
2547.2,0.608962
2548.6,2.044424
2549.9,2.785584
2551.2,0.616718
2552.5,3.30568
2553.8,1.605156
2555.1,-0.24454
2556.4,3.1023
2557.7,0.286654
2559,5.28092
2560.3,-0.5191
2561.6,5.7565
2562.9,2.13056
2564.2,2.053048
2565.5,4.083398
2566.8,1.9309186
2568.1,1.18748
2569.4,2.83476
2570.7,3.03208
2572,2.052798
2573.3,2.448168
2574.6,4.68166
2575.9,2.363752
2577.1,3.52984
2578.4,2.474096
2579.7,-1.634832
2581,3.33244
2582.3,1.340302
2583.6,3.08001
2584.9,3.104434
2586.2,1.183312
2587.5,0.93904
2588.7,0.3798
2590,1.41979
2591.3,1.46086
2592.6,2.827644
2593.9,1.09182
2595.2,-0.344332
2596.4,2.76812
2597.7,2.968444
2599,2.6403102
2600.3,2.56226
2601.6,4.30658
2602.8,2.0364
2604.1,5.11372
2605.4,0.15766
2606.7,3.382292
2608,3.099598
2609.2,0.039738
2610.5,-1.044466
2611.8,0.502832
2613,1.25418
2614.3,0.31724
2615.6,2.03296
2616.9,2.067524
2618.1,4.74166
2619.4,1.56686
2620.7,0.970372
2621.9,-0.779448
2623.2,-3.221564
2624.5,2.48732
2625.7,-1.037316
2627,-3.35124
2628.3,-3.53552
2629.5,0
2630.8,-0.909864
2632.1,-0.25884
2633.3,-1.0152166
2634.6,-2.37377
2635.8,-2.65615
2637.1,-2.492068
2638.4,1.470606
2639.6,-2.49952
2640.9,1.6598072
2642.1,-2.99326
2643.4,-1.877114
2644.6,-1.35426
2645.9,-2.258946
2647.2,-4.7625
2648.4,1.449946
2649.7,-1.249786
2650.9,-1.869926
2652.2,-2.10514
2653.4,-0.556498
2654.7,-2.5703592
2655.9,-1.705102
2657.2,-3.270058
2658.4,-2.239312
2659.7,1.329738
2660.9,-2.49814
2662.2,0.196518
2663.4,-2.2792514
2664.6,-0.886864
2665.9,3.07688
2667.1,0.170106
2668.4,-2.753146
2669.6,0.67375
2670.9,-1.296304
2672.1,1.856294
2673.3,-3.21219
2674.6,-2.0733
2675.8,-0.299914
2677.1,-1.710848
2678.3,-0.319204
2679.5,-0.65058
2680.8,0.0212999999999999
2682,1.0672
2683.2,-2.62082
2684.5,-2.269262
2685.7,-1.2112092
2686.9,-0.6173
2688.2,0.745946
2689.4,-3.68632
2690.6,-1.20208
2691.9,-0.858654
2693.1,0.3372
2694.3,-1.338548
2695.5,-0.347984
2696.8,-3.00224
2698,0.894202
2699.2,-2.223532
2700.4,-3.57283
2701.7,-1.416712
2702.9,-1.6046684
2704.1,-1.03156
2705.3,2.299008
2706.6,0.4289516
2707.8,-1.729246
2709,-0.746796
2710.2,-0.36233
2711.4,-1.68326
2712.6,0.790318
2713.9,-1.08712
2715.1,1.64104
2716.3,-1.19652
2717.5,-1.321068
2718.7,-1.933032
2719.9,0.92258
2721.2,0.251026
2722.4,-0.4399802
2723.6,-0.0577880000000002
2724.8,1.68952
2726,0
2727.2,1.742228
2728.4,0.8232652
2729.6,0.437054
2730.8,2.430582
2732,-1.0011
2733.3,3.0684
2734.5,-0.372768
2735.7,0.75269
2736.9,1.982474
2738.1,-1.257898
2739.3,0.465186
2740.5,1.886708
2741.7,1.089106
2742.9,-2.676232
2744.1,2.925718
2745.3,1.935784
2746.5,-0.268296
2747.7,0.667478
2748.9,0.305876
2750.1,2.1212
2751.3,-0.968195
2752.5,-0.0498299999999999
2753.7,-1.14848
2754.9,1.541652
2756,0.1964112
2757.2,-0.283666
2758.4,1.19634
2759.6,0.9814
2760.8,0.694942
2762,4.653536
2763.2,1.174346
2764.4,0.11939
2765.6,2.083002
2766.8,-0.84444
2767.9,2.762416
2769.1,2.09464
2770.3,0.6276
2771.5,2.188362
2772.7,1.88646
2773.9,2.46528
2775.1,2.710206
2776.2,0.955552
2777.4,1.071
2778.6,-1.037904
2779.8,3.31767
2781,0.97108
2782.1,-0.0262879999999999
2783.3,1.89796
2784.5,1.023146
2785.7,-1.1056
2786.8,1.94093
2788,-1.479438
2789.2,-0.216454
2790.4,0.268588
2791.5,4.641662
2792.7,0.811256
2793.9,-3.65954
2795.1,2.255522
2796.2,3.88998
2797.4,0.758096
2798.6,1.5811644
2799.7,1.195194
2800.9,1.561506
2802.1,2.6796
2803.2,-2.88683
2804.4,2.815528
2805.6,0.25638
2806.7,2.4457
2807.9,1.7857
2809.1,0.119012
2810.2,0.00117200000000004
2811.4,3.35876
2812.6,1.2645
2813.7,-2.256482
2814.9,1.0902664
2816,3.60382
2817.2,2.24574
2818.4,0
2819.5,2.06302
2820.7,5.460706
2821.8,5.08694
2823,2.37588
2824.1,3.84226
2825.3,3.48089
2826.4,4.035906
2827.6,2.596868
2828.7,3.67542
2829.9,2.087788
2831,4.87624
2832.2,2.23338
2833.3,4.10302
2834.5,2.69516
2835.6,2.612236
2836.8,2.455302
2837.9,-0.084808184
2839.1,1.75934
2840.2,2.245574
2841.4,1.1373
2842.5,1.240674
2843.7,3.34202
2844.8,-1.23866
2845.9,2.59352
2847.1,1.75938
2848.2,2.98669396
2849.4,1.522752
2850.5,-2.1232
2851.7,-0.26521
2852.8,1.139086
2853.9,2.276094
2855.1,0.606918
2856.2,-2.407106
2857.3,-0.024222
2858.5,0.897572
2859.6,-0.17388
2860.7,1.8843954
2861.9,-0.818834
2863,0.71928
2864.1,0.63854
2865.3,-0.74781
2866.4,-0.4520384
2867.5,-6.54494
2868.7,0.62732
2869.8,-0.92418
2870.9,2.51576
2872,0.54707
2873.2,-0.642802
2874.3,-0.89234
2875.4,-1.59044
2876.5,1.589148
2877.7,-2.577436
2878.8,-0.562214
2879.9,1.31471
2881,-1.238112
2882.2,-2.008556
2883.3,-0.954066
2884.4,-1.554886
2885.5,-0.0099619999999998
2886.6,0.62586
2887.8,1.7126
2888.9,-1.558
2890,1.92548
2891.1,3.074942
2892.2,1.204252
2893.3,0.623598
2894.4,-1.636344
2895.6,-0.73502
2896.7,-1.44696
2897.8,2.64289
2898.9,3.20308
2900,3.41174
2901.1,4.27166
2902.2,5.260446
2903.3,1.571368
2904.4,2.8146
2905.6,3.249512
2906.7,3.876904
2907.8,5.1442722
2908.9,6.77568
2910,4.978838
2911.1,6.45322
2912.2,6.910524
2913.3,4.43259
2914.4,5.404276
2915.5,9.26578
2916.6,8.35674
2917.7,8.9776
2918.8,6.78206
2919.9,9.72646
2921,8.62172
2922.1,12.41372
2923.2,10.64718
2924.3,12.37618
2925.4,12.1267
2926.5,12.94696
2927.6,14.48854
2928.7,12.41258
2929.8,12.60646
2930.8,13.25442
2931.9,13.73534
2933,14.18444
2934.1,15.9826
2935.2,15.2902
2936.3,18.3976
2937.4,17.1794
2938.5,15.90548
2939.6,12.84214
2940.6,18.9086
2941.7,20.4364
2942.8,16.3208
2943.9,17.5004
2945,16.8472
2946.1,16.7506
2947.2,18.1372
2948.2,18.0044
2949.3,15.943
2950.4,18.0336
2951.5,17.3136
2952.6,15.229
2953.6,14.32994
2954.7,16.46
2955.8,17.2746
2956.9,14.1772
2957.9,17.8088
2959,13.11806
2960.1,16.64
2961.2,15.79324
2962.2,19.1998
2963.3,16.9834
2964.4,12.9186
2965.5,14.57136
2966.5,12.83004
2967.6,15.0448
2968.7,11.27648
2969.7,13.71916
2970.8,14.044
2971.9,13.63336
2973,12.97438
2974,12.30608
2975.1,13.04962
2976.2,14.649
2977.2,15.1737
2978.3,14.8274
2979.3,13.91956
2980.4,14.27928
2981.5,12.2355
2982.5,14.92354
2983.6,14.8992
2984.7,15.79884
2985.7,16.63888
2986.8,13.14524
2987.8,15.47366
2988.9,15.82824
2989.9,13.6563
2991,19.2174
2992.1,16.9866
2993.1,19.3726
2994.2,14.92576
2995.2,19.2604
2996.3,21.815
2997.3,21.4988
2998.4,21.3186
2999.4,22.365
3000.5,21.536
3001.5,23.47
3002.6,22.2964
3003.6,21.415
3004.7,23.1396
3005.7,21.8054
3006.8,22.1576
3007.8,26.8048
3008.9,28.0284
3009.9,23.0062
3011,27.3836
3012,25.9116
3013,29.244
3014.1,30.393
3015.1,29.6738
3016.2,29.6154
3017.2,31.7488
3018.2,28.6254
3019.3,33.681
3020.3,32.7446
3021.4,34.7368
3022.4,32.821
3023.4,32.7798
3024.5,34.3494
3025.5,37.636
3026.5,37.0614
3027.6,37.8748
3028.6,39.5388
3029.6,39.8364
3030.7,43.5518
3031.7,42.385
3032.7,41.3726
3033.8,43.093
3034.8,42.0848
3035.8,45.7368
3036.9,47.1844
3037.9,47.8672
3038.9,45.7398
3039.9,46.9622
3041,46.8982
3042,49.1426
3043,50.2768
3044,50.5076
3045.1,51.1372
3046.1,50.0176
3047.1,56.6262
3048.1,55.164
3049.2,56.1824
3050.2,56.9554
3051.2,59.14
3052.2,57.6946
3053.2,59.9776
3054.3,57.1684
3055.3,60.627
3056.3,62.028
3057.3,64.5044
3058.3,66.4394
3059.3,62.4012
3060.3,66.829
3061.4,67.8204
3062.4,70.9672
3063.4,71.1886
3064.4,69.9154
3065.4,73.08
3066.4,70.9018
3067.4,76.5682
3068.4,77.291
3069.5,78.0326
3070.5,82.3256
3071.5,79.8848
3072.5,81.0558
3073.5,79.2368
3074.5,83.1014
3075.5,84.667
3076.5,84.996
3077.5,85.4972
3078.5,87.3362
3079.5,86.381
3080.5,89.6256
3081.5,91.1232
3082.5,93.7032
3083.5,92.204
3084.5,95.6438
3085.5,97.029
3086.5,97.0838
3087.5,96.897
3088.5,99.3506
3089.5,100.7874
3090.5,101.3096
3091.5,104.812
3092.5,103.8018
3093.5,101.802
3094.5,108.8628
3095.5,107.728
3096.4,109.0026
3097.4,110.01
3098.4,107.6524
3099.4,114.92
3100.4,121.382
3101.4,118.78
3102.4,119.566
3103.4,115.812
3104.4,117.6064
3105.3,124.376
3106.3,126.908
3107.3,128.41
3108.3,124.234
3109.3,127.828
3110.3,133.358
3111.3,138.332
3112.2,131.36
3113.2,139.204
3114.2,137.14
3115.2,139.484
3116.2,140.528
3117.1,140.202
3118.1,141.31
3119.1,145.69
3120.1,146.508
3121,148.012
3122,148.19
3123,150.626
3124,155.756
3124.9,155.382
3125.9,151.784
3126.9,159.084
3127.9,160.792
3128.8,162.544
3129.8,161.138
3130.8,164.548
3131.7,164.218
3132.7,165.13
3133.7,167.866
3134.7,166.65
3135.6,171.948
3136.6,170.36
3137.6,173.112
3138.5,173.22
3139.5,175.064
3140.4,175.442
3141.4,178.342
3142.4,178.488
3143.3,181.472
3144.3,180.544
3145.3,184.576
3146.2,180.414
3147.2,186.382
3148.1,183.876
3149.1,183.652
3150.1,188.472
3151,190.476
3152,189.588
3152.9,192.522
3153.9,191.416
3154.8,195.27
3155.8,190.558
3156.7,196.3
3157.7,199.35
3158.6,196.146
3159.6,199.672
3160.6,201.922
3161.5,208.958
3162.5,202.53
3163.4,203.494
3164.4,203.69
3165.3,197.948
3166.2,203.304
3167.2,201.158
3168.1,207.872
3169.1,202.816
3170,205.728
3171,204.844
3171.9,209.72
3172.9,204.866
3173.8,203.354
3174.7,209.488
3175.7,206.654
3176.6,206.06
3177.6,205.856
3178.5,207.572
3179.5,209.972
3180.4,209.592
3181.3,213.224
3182.3,211.612
3183.2,211.936
3184.1,211.63
3185.1,209.276
3186,207.44
3186.9,217.168
3187.9,215.678
3188.8,210.426
3189.7,207.64
3190.7,212.234
3191.6,211.698
3192.5,211.216
3193.5,209.486
3194.4,212.38
3195.3,211.992
3196.3,208.606
3197.2,214.818
3198.1,211.484
3199,209.696
3200,207.348
3200.9,206.568
3201.8,210.612
3202.7,209.392
3203.7,209.2
3204.6,207.534
3205.5,202.668
3206.4,199.606
3207.3,201.472
3208.3,204.514
3209.2,201.064
3210.1,196.108
3211,198.268
3211.9,195.72
3212.9,192.938
3213.8,190.134
3214.7,190.452
3215.6,188.79
3216.5,187.582
3217.4,186.176
3218.4,186.68
3219.3,185.32
3220.2,182.984
3221.1,176.182
3222,176.902
3222.9,180.296
3223.8,175.4
3224.7,175.084
3225.6,166.954
3226.6,168.558
3227.5,167.532
3228.4,164.908
3229.3,158.29
3230.2,158.142
3231.1,157.38
3232,152.36
3232.9,148.49
3233.8,151.316
3234.7,144.37
3235.6,145
3236.5,144.368
3237.4,133.024
3238.3,133.852
3239.2,130.604
3240.1,127.786
3241,128.708
3241.9,117.06
3242.8,117.854
3243.7,107.1894
3244.6,107.358
3245.5,105.11
3246.4,97.0506
3247.3,89.213
3248.2,87.5318
3249.1,80.6806
3250,74.3114
3250.9,62.2796
3251.8,56.6334
3252.7,46.3496
3253.5,38.3506
3254.4,26.1386
3255.3,10.91384
3256.2,-7.55042
