250.34,-5.664
252.57,-5.87296
254.8,0
257.03,-5.91036
259.26,-1.219678
261.48,2.36024
263.71,1.99216
265.94,-5.877742
268.16,0.9144216
270.39,2.812808
272.61,1.82632
274.84,-2.1397
277.06,0.70006
279.28,-0.722780000000001
281.51,-3.253216
283.73,0.900034
285.95,-1.44294
288.17,0.85209
290.39,-1.96742
292.61,-0.88991
294.83,0.0888139999999999
297.05,2.200212
299.27,1.112728
301.48,5.87062
303.7,8.058012
305.91,10.739962
308.13,5.94664
310.35,5.987446
312.56,9.57624
314.77,8.86808
316.99,3.8567952
319.2,6.5465
321.41,10.83514
323.62,8.86838
325.83,-0.1794372
328.04,4.58716
330.25,-5.40728
332.46,0.95344
334.67,1.31406
336.88,1.13342
339.08,-1.802396
341.29,9.06242
343.5,6.52906
345.7,15.72342
347.91,23.2064
350.11,64.7376
352.31,129.259
354.52,169.9272
356.72,162.2578
358.92,109.0846
361.12,66.747
363.32,41.5846
365.52,32.6516
367.72,33.787
369.92,20.5616
372.12,24.3434
374.32,44.5722
376.51,82.4422
378.71,106.4454
380.9,87.9094
383.1,56.0394
385.29,27.0604
387.49,15.08156
389.68,5.87018
391.87,4.112106
394.07,-3.80267
396.26,3.281454
398.45,-0.765116
400.64,6.6978
402.83,16.72592
405.02,19.2348
407.21,34.404
409.39,58.649
411.58,134.998
413.77,362.894
415.95,634.844
418.14,700
420.32,486.468
422.51,242.81
424.69,129.082
426.87,89.9538
429.06,86.177
431.24,83.1216
433.42,63.6308
435.6,33.8656
437.78,13.23456
439.96,3.3639
442.14,-0.0608114
444.31,6.50928
446.49,25.8926
448.67,38.0846
450.84,42.0214
453.02,23.121
455.19,2.802828
457.37,-2.015294
459.54,-5.63122
461.71,-2.597846
463.89,-0.437
466.06,-5.92594
468.23,-2.2059
470.4,-8.311
472.57,-5.71622
474.74,-6.32002
476.91,-4.998932
479.07,-2.94648
481.24,0.929828
483.41,5.12306
485.57,3.04474
487.74,6.01672
489.9,5.65502
492.07,2.04438
494.23,-1.02359
496.4,0.46792
498.56,-15.5571
500.72,-5.2875
502.88,-14.71838
505.04,-15.15904
507.2,-6.82066
509.36,-7.50182
511.52,-15.726
513.68,-10.57846
515.83,-4.56908
517.99,-1.798996
520.14,-3.70296
522.3,-6.94196
524.45,2.999434
526.61,1.26992
528.76,-0.399388
530.91,3.23536
533.07,2.40108
535.22,7.022046
537.37,6.690666
539.52,8.82128
541.67,8.64558
543.82,4.326256
545.97,9.200918
548.11,4.68044
550.26,-0.671942
552.41,1.41702
554.55,3.82036
556.7,-0.55828
558.84,5.345322
560.98,4.93152
563.13,10.25684
565.27,12.0304
567.41,11.51586
569.55,23.9082
571.69,38.1338
573.83,93.909
575.97,139.068
578.11,153.232
580.25,141.852
582.39,180.75
584.52,313.314
586.66,433.362
588.79,416.314
590.93,279.352
593.06,153.2938
595.19,78.4842
597.33,43.7442
599.46,22.9016
601.59,16.2182
603.72,9.06113
605.85,4.575088
607.98,-0.0480246
610.11,6.395426
612.24,3.339686
614.36,6.937
616.49,1.779624
618.62,0.626216
620.74,4.88072
622.87,3.1701922
624.99,-0.2206788
627.11,0.781182
629.24,-0.22308
631.36,-5.93336
633.48,-0.81547
635.6,-1.881616
637.72,-1.76892
639.84,-1.91182
641.96,0.074379
644.08,-3.83534
646.2,-5.669494
648.31,-9.40344
650.43,-11.65804
652.54,-14.52696
654.66,-13.89132
656.77,-12.55792
658.89,-12.15584
661,-13.598384
663.11,-6.05726
665.22,-6.62996
667.33,-6.0570298
669.44,-13.19276
671.55,-13.870298
673.66,-4.477272
675.77,-4.03058
677.88,1.15314
679.98,8.20027
682.09,15.63878
684.2,19.9808
686.3,35.0938
688.4,35.9312
690.51,50.2142
692.61,61.3372
694.71,62.897
696.81,67.4676
698.92,75.4712
701.02,80.3758
703.11,89.5188
705.21,89.6616
707.31,92.2628
709.41,103.7192
711.51,100.9824
713.6,96.4202
715.7,87.1852
717.79,79.9708
719.89,71.344
721.98,59.0422
724.07,49.7742
726.16,39.963
728.25,38.905
730.35,38.0496
732.44,36.2878
734.52,41.5666
736.61,54.0162
738.7,65.815
740.79,88.8716
742.87,121.418
744.96,160.45
747.05,210.018
749.13,238.69
751.21,243.076
753.3,212.42
755.38,161.772
757.46,114.36
759.54,83.7842
761.62,56.3728
763.7,33.7522
765.78,24.7978
767.86,10.93396
769.94,5.90322
772.01,4.18702
774.09,0.148222
776.17,-0.386686
778.24,-0.53308
780.32,-1.20932
782.39,2.647542
784.46,0.461628
786.53,4.18262
788.61,5.91518
790.68,10.82996
792.75,5.077948
794.82,4.519302
796.89,2.646636
798.95,4.6796
801.02,4.456356
803.09,5.71712
805.15,8.88598
807.22,13.3836
809.28,24.2798
811.35,48.98
813.41,79.4566
815.47,79.8952
817.53,49.4868
819.6,27.6848
821.66,17.4268
823.72,8.67292
825.78,5.752476
827.83,4.47124
829.89,5.16148
831.95,9.4708
834,4.93712
836.06,7.77328
838.12,3.821484
840.17,8.35498
842.22,6.8405
844.28,5.13418
846.33,5.9256478
848.38,8.79364
850.43,6.13494
852.48,9.20188
854.53,8.560932
856.58,7.92888
858.63,11.43398
860.67,10.45294
862.72,7.844352
864.77,5.59228
866.81,5.87246
868.86,5.282896
870.9,6.63112
872.94,3.07684
874.98,-0.840722
877.03,-0.0212400000000001
879.07,1.18578
881.11,0.977036
883.15,5.4068
885.19,2.683756
887.22,3.73924
889.26,2.05435
891.3,3.2046
893.33,2.511492
895.37,0.52114
897.4,0.098608
899.44,0
901.47,1.77168
903.5,1.158656
905.54,3.98226
907.57,3.94638
909.6,4.0994
911.63,-1.877716
913.66,3.81182
915.68,4.485786
917.71,2.40692
919.74,3.980384
921.76,1.089524
923.79,-5.54228
925.82,-0.7240642
927.84,-1.093052
929.86,6.630076
931.89,8.02472
933.91,7.30396
935.93,6.79362
937.95,5.78434
939.97,1.258932
941.99,1.419266
944.01,1.6005
946.02,1.474922
948.04,0.88284
950.06,1.935178
952.07,1.68136
954.09,0.53182
956.1,2.02006
958.12,2.82122
960.13,3.98503
962.14,-0.374942
964.15,2.22908
966.16,1.61523
968.17,-0.72016
970.18,0.067648
972.19,-2.6852
974.2,0.66734
976.2,-0.14988
978.21,0.816354
980.22,1.967066
982.22,2.27394
984.22,3.390914
986.23,4.94254
988.23,2.88504
990.23,6.23442
992.23,6.9875
994.24,4.409316
996.23,3.3227
998.23,5.20268
1000.2,13.32218
1002.2,10.087788
1004.2,10.28512
1006.2,11.37286
1008.2,17.1631
1010.2,12.52824
1012.2,14.9163
1014.2,16.63082
1016.2,19.3816
1018.2,16.4924
1020.2,15.97142
1022.2,23.1806
1024.2,24.4482
1026.1,29.367
1028.1,32.076
1030.1,41.7008
1032.1,63.0882
1034.1,81.4584
1036.1,80.1134
1038.1,57.3348
1040.1,41.4676
1042,38.9976
1044,39.5484
1046,39.1768
1048,38.4566
1050,43.138
1051.9,38.047
1053.9,36.2482
1055.9,39.6298
1057.9,36.0494
1059.9,34.6878
1061.8,30.1256
1063.8,30.2262
1065.8,26.6768
1067.8,27.0838
1069.7,23.5662
1071.7,25.0204
1073.7,24.7522
1075.6,23.7564
1077.6,21.2532
1079.6,22.487
1081.5,19.7728
1083.5,13.35494
1085.5,7.459368
1087.5,7.81024
1089.4,5.264484
1091.4,5.30796
1093.3,4.32918
1095.3,5.1894
1097.3,5.28991
1099.2,6.144208
1101.2,1.715866
1103.2,6.8456
1105.1,3.083058
1107.1,-0.55572
1109,2.90141
1111,0.42288
1113,-1.63168
1114.9,4.37214
1116.9,1.771672
1118.8,0.560544
1120.8,6.365
1122.7,2.613194
1124.7,5.87952
1126.6,6.571074
1128.6,7.15738
1130.5,6.33474
1132.5,5.06136
1134.4,4.64137184
1136.4,7.546216
1138.3,13.23252
1140.3,7.532255806
1142.2,10.30298
1144.2,11.24406
1146.1,13.51254
1148.1,12.93546
1150,15.28018
1151.9,19.4888
1153.9,20.5906
1155.8,15.8118
1157.8,15.9628
1159.7,20.523
1161.6,21.944
1163.6,30.237
1165.5,32.9742
1167.5,32.2678
1169.4,34.127
1171.3,44.3712
1173.3,44.6642
1175.2,47.9876
1177.1,49.5392
1179.1,53.2548
1181,59.8134
1182.9,64.7936
1184.9,68.3132
1186.8,77.6074
1188.7,84.6042
1190.6,85.7546
1192.6,96.5094
1194.5,101.8628
1196.4,111.64
1198.4,114.474
1200.3,125.57
1202.2,130.268
1204.1,132.68
1206,141.524
1208,148.018
1209.9,155.994
1211.8,159.798
1213.7,163.484
1215.6,160.848
1217.6,164.954
1219.5,170.228
1221.4,163.278
1223.3,162.532
1225.2,159.894
1227.1,152.2
1229.1,148.372
1231,142.074
1232.9,140.124
1234.8,140.406
1236.7,132.56
1238.6,129.488
1240.5,122.124
1242.4,120.762
1244.3,122.85
1246.2,113.568
1248.1,109.076
1250.1,106.81
1252,102.041
1253.9,107.208
1255.8,102.607
1257.7,105.7184
1259.6,112.2306
1261.5,115.218
1263.4,125.28
1265.3,129.654
1267.2,140.086
1269.1,150.456
1271,160.788
1272.9,163.294
1274.8,171.426
1276.6,168.434
1278.5,162.586
1280.4,150.914
1282.3,142.25
1284.2,135.524
1286.1,119.084
1288,107.99
1289.9,92.4782
1291.8,83.8282
1293.7,74.8436
1295.6,71.2196
1297.4,67.7628
1299.3,66.2216
1301.2,64.3538
1303.1,61.3074
1305,62.377
1306.9,57.994
1308.7,57.5312
1310.6,53.1404
1312.5,50.1932
1314.4,53.3668
1316.3,53.3082
1318.1,51.63
1320,52.0096
1321.9,52.7044
1323.8,50.268
1325.7,52.7778
1327.5,51.5798
1329.4,54.6978
1331.3,51.4418
1333.1,56.2342
1335,55.7354
1336.9,60.2754
1338.8,57.7108
1340.6,67.672
1342.5,68.105
1344.4,78.2274
1346.2,88.3638
1348.1,93.2486
1350,101.6316
1351.8,108.012
1353.7,109.794
1355.6,110.644
1357.4,112.938
1359.3,108.856
1361.1,117.312
1363,118.86
1364.9,135.5
1366.7,151.412
1368.6,169.644
1370.4,194.314
1372.3,226.178
1374.2,270.59
1376,330.318
1377.9,409.37
1379.7,481.304
1381.6,539.496
1383.4,557.866
1385.3,530.472
1387.1,467.824
1389,403.798
1390.8,344.302
1392.7,306.212
1394.5,283.746
1396.4,281.532
1398.2,284.502
1400.1,280.114
1401.9,265.1
1403.8,239.862
1405.6,212.568
1407.4,179.29
1409.3,150.24
1411.1,126.644
1413,103.674
1414.8,92.9758
1416.6,80.365
1418.5,67.3958
1420.3,56.9994
1422.2,51.2626
1424,43.131
1425.8,36.7718
1427.7,30.698
1429.5,29.8794
1431.3,23.7932
1433.2,18.7618
1435,16.0708
1436.8,15.50578
1438.7,15.04694
1440.5,14.14656
1442.3,6.976036
1444.1,9.74066
1446,6.62695
1447.8,5.89566
1449.6,6.3914
1451.4,2.542458
1453.3,2.795096
1455.1,-0.681828
1456.9,0.3758458
1458.7,-3.040326
1460.6,-4.00378
1462.4,-3.930418
1464.2,-3.91542
1466,-7.15012
1467.8,-4.25988
1469.6,-4.906928
1471.5,-6.0829
1473.3,-8.02046
1475.1,-9.86404
1476.9,-8.66654
1478.7,-7.4876
1480.5,-5.99832
1482.4,-3.2117
1484.2,-7.71688
1486,-6.37798
1487.8,-6.3954
1489.6,-9.92044
1491.4,-8.00998
1493.2,-8.51786
1495,-7.8515
1496.8,-9.18188
1498.6,-6.32702
1500.4,-6.04272
1502.2,-6.725148
1504,-5.37468
1505.8,-3.640172
1507.6,-1.011782
1509.4,-4.372638
1511.2,-5.03966
1513,-5.84484
1514.8,-3.127498
1516.6,-4.585552
1518.4,-4.30922
1520.2,-3.34651
1522,-7.57164
1523.8,-4.64822
1525.6,-3.6465
1527.4,-4.702432
1529.2,0.253628
1531,0.62752
1532.8,0.171308
1534.6,-0.53216
1536.4,-1.35068
1538.2,0.750636
1539.9,1.10456
1541.7,2.9235728
1543.5,4.54814
1545.3,7.4564
1547.1,8.45538
1548.9,14.96104
1550.7,21.96892
1552.4,28.7744
1554.2,31.084
1556,38.7578
1557.8,35.9324
1559.6,31.4758
1561.3,34.5036
1563.1,33.6418
1564.9,38.6666
1566.7,44.787
1568.4,44.6134
1570.2,54.2318
1572,55.7982
1573.8,62.871
1575.5,62.4834
1577.3,70.1336
1579.1,77.8758
1580.9,82.0414
1582.6,85.7996
1584.4,98.1274
1586.2,101.404
1587.9,109.592
1589.7,114.768
1591.5,122.886
1593.2,130.15
1595,137.094
1596.8,146.524
1598.5,150.984
1600.3,164.798
1602,171.772
1603.8,179.774
1605.6,192.826
1607.3,201.454
1609.1,211.038
1610.8,220.348
1612.6,227.552
1614.4,235.948
1616.1,247.32
1617.9,251.534
1619.6,256.016
1621.4,262.942
1623.1,276.896
1624.9,281.428
1626.6,287.254
1628.4,298.044
1630.1,302.178
1631.9,305.538
1633.6,309.908
1635.4,317.83
1637.1,317.03
1638.9,318.058
1640.6,322.246
1642.4,324.796
1644.1,323.128
1645.8,328.946
1647.6,328.832
1649.3,325.054
1651.1,324.932
1652.8,329.38
1654.6,322.088
1656.3,319.942
1658,318.148
1659.8,313.814
1661.5,315.85
1663.2,309.928
1665,309.3
1666.7,304.356
1668.4,300.382
1670.2,296.442
1671.9,296.096
1673.6,297.282
1675.4,292.974
1677.1,290.82
1678.8,292.682
1680.5,291.694
1682.3,289.98
1684,285.48
1685.7,288.212
1687.5,291.79
1689.2,297.122
1690.9,300.308
1692.6,304.79
1694.3,308.666
1696.1,315.944
1697.8,316.42
1699.5,318.198
1701.2,329.576
1702.9,335.74
1704.7,339.248
1706.4,346.686
1708.1,345.352
1709.8,356.398
1711.5,354.21
1713.2,358.354
1714.9,353.728
1716.7,351.786
1718.4,350.108
1720.1,344.468
1721.8,338.85
1723.5,328.502
1725.2,317.468
1726.9,314.686
1728.6,303.376
1730.3,294.418
1732,283.768
1733.7,269.678
1735.4,253.148
1737.1,243.024
1738.8,223.504
1740.6,206.622
1742.3,186.592
1744,172.746
1745.7,153.334
1747.3,135.55
1749,119.266
1750.7,107.1144
1752.4,96.5394
1754.1,81.7948
1755.8,74.4272
1757.5,62.5156
1759.2,56.0026
1760.9,48.3632
1762.6,45.2078
1764.3,37.7562
1766,34.403
1767.7,29.328
1769.4,25.9658
1771.1,23.4624
1772.7,22.3458
1774.4,21.4464
1776.1,20.203
1777.8,12.1615
1779.5,11.4037
1781.2,10.92718
1782.8,8.57948
1784.5,6.406808
1786.2,2.84508
1787.9,-1.386278
1789.6,5.08594
1791.2,0.171904
1792.9,6.059614
1794.6,-0.3055258
1796.3,0.400912
1798,-0.60678
1799.6,-1.35388
1801.3,-5.19996
1803,-5.67176
1804.7,-3.8502
1806.3,-2.4642
1808,-3.7526742
1809.7,-5.030546
1811.3,-3.767252
1813,-3.19632
1814.7,-4.67038
1816.3,-1.90232
1818,-2.3227
1819.7,-3.36764
1821.3,-3.019414
1823,0.525536
1824.7,-1.804692
1826.3,0.6122402
1828,-2.765528
1829.7,-1.908206
1831.3,-0.61882
1833,-3.65442
1834.6,-2.297382
1836.3,-1.703118
1838,-1.634946
1839.6,-1.05092
1841.3,0.271584
1842.9,-5.12776
1844.6,-1.3589
1846.2,-2.128602
1847.9,-3.05644
1849.5,-0.484764
1851.2,-2.8847
1852.8,0.326546
1854.5,0.810276
1856.1,1.967256
1857.8,-0.57612
1859.4,-0.3108916
1861.1,1.777586
1862.7,-1.1731868
1864.4,-1.026112
1866,0.811664
1867.7,-0.749184
1869.3,2.29489
1871,-1.0916
1872.6,2.66936
1874.2,1.422794
1875.9,0.410064
1877.5,2.63724
1879.2,0
1880.8,-1.358812
1882.4,-5.13648
1884.1,0.228284
1885.7,-0.49608
1887.3,-0.7496
1889,-0.90888
1890.6,-0.956416
1892.2,-3.11798
1893.9,-1.9942184
1895.5,-6.84224
1897.1,-0.645672
1898.8,0.33214
1900.4,0.937186
1902,-1.623598
1903.7,-0.710474
1905.3,1.536742
1906.9,-1.88538022
1908.5,-1.09512
1910.2,-0.214626
1911.8,0.978554
1913.4,-3.38402
1915,1.41612
1916.7,-0.28938
1918.3,-0.266704
1919.9,-0.94918
1921.5,1.62231
1923.1,-0.515238
1924.8,-1.3205
1926.4,2.91806
1928,-2.988976
1929.6,1.622662
1931.2,1.135144
1932.8,0.695018
1934.4,0.0840459999999999
1936.1,2.4961
1937.7,1.76831
1939.3,1.10818
1940.9,-0.0226000000000003
1942.5,1.92888
1944.1,0.57441
1945.7,0.238792
1947.3,0.595062
1948.9,-0.4686856
1950.5,2.794616
1952.1,-0.1276276
1953.8,0.582676
1955.4,2.137294
1957,-0.98834
1958.6,2.9739
1960.2,0.947838
1961.8,1.99371
1963.4,2.11542
1965,2.504676
1966.6,1.07768
1968.2,2.02413
1969.8,1.587986
1971.4,2.60134
1973,3.83464
1974.5,1.46536
1976.1,2.54056
1977.7,0.8859
1979.3,2.65122
1980.9,-0.33502
1982.5,-0.05068
1984.1,1.12902
1985.7,0.971076
1987.3,0.347214
1988.9,0.832942
1990.5,2.11568
1992,1.692806
1993.6,1.023834
1995.2,-0.0462000000000001
1996.8,0.640882
1998.4,-0.14716
2000,-2.475844
2001.6,4.93892
2003.1,3.75542
2004.7,1.625888
2006.3,0.617114
2007.9,-0.65079348
2009.5,0.89291
2011,5.221504
2012.6,3.3310132
2014.2,1.0122
2015.8,4.1563
2017.3,3.10508
2018.9,-0.1866226
2020.5,0.993118
2022.1,4.420058
2023.6,3.52894954
2025.2,4.02814
2026.8,3.996578
2028.3,1.86498
2029.9,0.940012
2031.5,0.75932
2033,2.13774
2034.6,4.523578
2036.2,-0.22992
2037.7,6.83146
2039.3,4.6499634
2040.9,3.1024356
2042.4,1.012254
2044,5.0259
2045.6,3.609144
2047.1,3.0773
2048.7,4.245386
2050.2,0.827554
2051.8,3.880048
2053.4,5.45568
2054.9,3.79794
2056.5,1.012766
2058,2.46885
2059.6,1.114788
2061.1,5.485386
2062.7,2.68812
2064.2,3.866838
2065.8,2.98562
2067.3,1.01412
2068.9,2.322446
2070.4,3.56452
2072,2.51856
2073.5,2.961732
2075.1,2.22704
2076.6,1.8131922
2078.2,-1.4887526
2079.7,-1.12052
2081.3,2.44869
2082.8,6.26964
2084.4,1.739126
2085.9,5.12864
2087.4,3.88356
2089,3.416
2090.5,4.952
2092.1,6.58058
2093.6,4.31374
2095.1,5.81942
2096.7,6.46944
2098.2,7.27862
2099.7,5.1526
2101.3,8.84664
2102.8,8.55156
2104.3,3.18366
2105.9,6.20274
2107.4,9.08514
2108.9,7.50586
2110.5,6.16026
2112,7.45524
2113.5,9.00684
2115.1,8.75572
2116.6,8.49315
2118.1,5.78202
2119.6,7.47798
2121.2,6.16068
2122.7,5.598366
2124.2,8.23552
2125.7,7.59614
2127.3,9.01954
2128.8,13.58666
2130.3,18.09594
2131.8,26.5432
2133.3,40.1106
2134.9,62.5924
2136.4,89.5358
2137.9,107.7392
2139.4,109.732
2140.9,105.4024
2142.4,85.0902
2144,61.8554
2145.5,37.4134
2147,25.9614
2148.5,19.2942
2150,15.266304
2151.5,10.57618
2153,10.57256
2154.5,7.34564
2156,5.42878
2157.6,3.060302
2159.1,5.36778
2160.6,3.78188
2162.1,2.203781
2163.6,0.43218
2165.1,-0.3614
2166.6,1.94252
2168.1,1.5604
2169.6,-3.98704
2171.1,2.75682
2172.6,1.558196
2174.1,2.641746
2175.6,1.23128
2177.1,1.78519
2178.6,0.484452
2180.1,-1.493844
2181.6,3.07136
2183.1,-0.197494
2184.6,-1.9254
2186.1,-1.2808496
2187.5,0.23036
2189,-1.4365656
2190.5,1.625338
2192,1.29942
2193.5,-0.832434
2195,1.86162
2196.5,-0.88396
2198,0.095104
2199.5,-2.71632
2201,-1.440524
2202.4,0.449684
2203.9,1.944512
2205.4,-6.17072
2206.9,-1.883282
2208.4,2.734502
2209.9,-0.335174
2211.3,-1.51372
2212.8,-2.49108
2214.3,0.406814
2215.8,-0.0974459999999999
2217.3,-2.232904
2218.7,-1.224738
2220.2,-1.494504
2221.7,0.10663108
2223.2,0.9462
2224.6,2.1900232
2226.1,-0.042116
2227.6,-0.38588
2229.1,-1.424144
2230.5,-0.92638
2232,-2.28507
2233.5,-1.566938
2234.9,1.4571
2236.4,-0.399442
2237.9,0.73846
2239.3,-0.767492
2240.8,0.487064
2242.3,0.988116
2243.7,-0.10987
2245.2,1.60126
2246.7,-0.589806
2248.1,-0.0819919999999999
2249.6,-2.113324
2251.1,2.92876
2252.5,1.73762
2254,-1.171426
2255.4,-1.283114
2256.9,-0.120852
2258.3,1.81832
2259.8,-0.40714
2261.3,-0.93794
2262.7,-0.68736
2264.2,-0.678616
2265.6,0.284472
2267.1,0.68944588
2268.5,0.07446
2270,2.685226
2271.4,0.403474
2272.9,0.341082
2274.3,0
2275.8,1.321512
2277.2,1.88262
2278.7,0.82951
2280.1,0.6548
2281.6,1.9426
2283,0.0993000000000001
2284.5,-0.092652
2285.9,1.099742
2287.4,1.450528
2288.8,-0.30111304
2290.2,2.52232
2291.7,1.078666
2293.1,0.50042
2294.6,1.76034
2296,0.46734
2297.4,0.804236
2298.9,0.846416
2300.3,0.291432
2301.7,-1.54992
2303.2,-1.942238
2304.6,1.537316
2306,0.87812
2307.5,3.49018
2308.9,0.9795
2310.3,0.437628
2311.8,2.295782
2313.2,0.00888999999999989
2314.6,-1.47523
2316.1,-1.099124
2317.5,2.35792
2318.9,1.626956
2320.3,1.16226
2321.8,2.93746
2323.2,6.60244
2324.6,11.01388
2326,15.3058
2327.5,23.8208
2328.9,26.8072
2330.3,27.7258
2331.7,22.4172
2333.2,13.5762
2334.6,9.75996
2336,6.41014
2337.4,4.34958
2338.8,3.919788
2340.2,1.082982
2341.7,1.3958654
2343.1,0.72732
2344.5,3.629672
2345.9,2.427332
2347.3,-1.341384
2348.7,0.39866
2350.1,-1.00082
2351.6,-1.514506
2353,0.60531
2354.4,0.6863
2355.8,-0.57478
2357.2,-1.236428
2358.6,-5.719372
2360,1.713102
2361.4,2.2743
2362.8,1.741328
2364.2,0.73094
2365.6,-4.11186
2367,4.18776
2368.4,2.232566
2369.8,-0.59138
2371.2,-0.583446
2372.6,-0.0469104000000001
2374,-0.382248
2375.4,0.166822
2376.8,1.9666344
2378.2,-0.326714
2379.6,2.29176
2381,-0.620898
2382.4,1.64342
2383.8,-0.96144
2385.2,-0.8046
2386.6,-0.61104
2388,-0.712448
2389.4,-1.83736
2390.8,0.539294
2392.1,-1.57878
2393.5,0.102182
2394.9,-0.10246
2396.3,0.725722
2397.7,-1.2179
2399.1,1.94845
2400.5,0.64638
2401.9,-1.86102
2403.2,2.24184
2404.6,0.23696
2406,-0.67757
2407.4,-0.198192
2408.8,-1.022948
2410.2,1.11685
2411.5,2.2936
2412.9,-0.61194
2414.3,2.189722
2415.7,0
2417,-0.74022
2418.4,2.558676
2419.8,-1.09214
2421.2,-0.2166
2422.5,-0.8272568
2423.9,-1.68638
2425.3,2.37302
2426.7,-0.339232
2428,-0.58004
2429.4,-1.521628
2430.8,-2.74958
2432.1,-4.41112
2433.5,-3.53954
2434.9,-0.9388
2436.2,-1.143518
2437.6,-3.251002
2439,0.109676
2440.3,1.02728
2441.7,-0.18624
2443.1,-1.881624
2444.4,-0.46556
2445.8,2.150344
2447.2,2.1128648
2448.5,0.681452
2449.9,-0.37062
2451.2,0.19232
2452.6,-1.04244
2454,-0.3187754
2455.3,-1.218882
2456.7,-0.28753
2458,-0.907
2459.4,-0.973152
2460.7,0.026446
2462.1,-0.231738
2463.4,-0.10504
2464.8,-2.944108
2466.1,2.8546084
2467.5,1.7373874
2468.8,-0.1077134
2470.2,0.2424
2471.5,1.01856
2472.9,0.23844
2474.2,-0.565148
2475.6,0.2680862
2476.9,1.012026
2478.3,1.125556
2479.6,-0.376056
2481,-0.292864
2482.3,-0.056906
2483.6,-0.17356
2485,0.0583120000000001
2486.3,1.964132
2487.7,0.851628
2489,0.687592
2490.3,0.493718
2491.7,-0.366034
2493,0.640888
2494.4,-0.2992864
2495.7,0.0368419999999999
2497,1.748342
2498.4,1.914212
2499.7,1.0505284
2501,-0.415844
2502.4,-1.720336
2503.7,0.771596
2505,0.275916
2506.4,0.503316
2507.7,0.84966
2509,1.49784
2510.3,2.4378
2511.7,0.205356
2513,0.75126
2514.3,1.94898
2515.6,0.144878
2517,1.630754
2518.3,2.028184
2519.6,1.908134
2520.9,0
2522.3,3.66289
2523.6,3.22352
2524.9,1.675218
2526.2,1.42898
2527.5,1.780568
2528.9,-0.538522
2530.2,1.080694
2531.5,1.036864
2532.8,2.900768
2534.1,2.5987
2535.4,1.447742
2536.8,1.97492
2538.1,-0.495552
2539.4,3.274702
2540.7,1.564942
2542,0.0778906
2543.3,1.17219
2544.6,2.1006
2545.9,-0.0276999999999999
2547.2,0.384556
2548.6,1.396822
2549.9,3.80036
2551.2,3.31304
2552.5,3.51667286
2553.8,3.658922
2555.1,3.10144
2556.4,3.9243
2557.7,5.04496
2559,4.16716
2560.3,1.333614
2561.6,3.277
2562.9,1.874028
2564.2,0.857818
2565.5,4.03384
2566.8,5.47706
2568.1,3.21296
2569.4,2.659256
2570.7,3.08866
2572,5.437732
2573.3,5.95364
2574.6,4.009924
2575.9,3.953546
2577.1,1.15058
2578.4,3.206898
2579.7,2.59476
2581,4.90394
2582.3,4.89368
2583.6,3.48639
2584.9,3.38212
2586.2,3.3101
2587.5,2.42366
2588.7,1.820178
2590,5.604658
2591.3,1.40317
2592.6,3.31945
2593.9,1.528982
2595.2,0.6760124
2596.4,0.734674
2597.7,1.13992
2599,2.723702
2600.3,2.869742
2601.6,2.197962
2602.8,2.437216
2604.1,1.296672
2605.4,2.2066
2606.7,3.1286382
2608,2.696834
2609.2,-0.972198
2610.5,-0.39351
2611.8,-1.011428
2613,0.356042
2614.3,2.525894
2615.6,-0.76834
2616.9,0.011518
2618.1,0.680402
2619.4,-0.351702
2620.7,-2.169
2621.9,-0.578572
2623.2,-1.3859
2624.5,-0.3201
2625.7,0.70277
2627,-0.0240400000000001
2628.3,0.77732
2629.5,0
2630.8,1.140418
2632.1,-1.017674
2633.3,2.820014
2634.6,-1.32382
2635.8,-0.407164
2637.1,-2.008034
2638.4,-0.662884
2639.6,-4.100292
2640.9,0.5164
2642.1,-1.34368
2643.4,-1.3220958
2644.6,0.51612
2645.9,-2.68956
2647.2,-1.78114
2648.4,-3.224984
2649.7,-2.1074
2650.9,-0.574448
2652.2,-3.029362
2653.4,-0.705872
2654.7,-1.71606
2655.9,-1.16513
2657.2,-1.229378
2658.4,-3.010756
2659.7,-2.94326
2660.9,-3.65912
2662.2,-0.4701
2663.4,-1.134452
2664.6,-0.81447
2665.9,-1.218548
2667.1,-2.311916
2668.4,-3.36322
2669.6,-1.372894
2670.9,-3.51772
2672.1,-4.75631
2673.3,-1.059458
2674.6,-0.55452
2675.8,-1.96864
2677.1,-1.83374
2678.3,0.69776
2679.5,-0.112536
2680.8,0.369192
2682,-0.735338
2683.2,-2.815894
2684.5,-0.47836
2685.7,-0.65913
2686.9,-0.10191
2688.2,0.225524
2689.4,-0.14724
2690.6,-3.48056
2691.9,-1.44146
2693.1,0.52542
2694.3,0.275632
2695.5,-0.341968
2696.8,0.546964
2698,-1.02837
2699.2,0.351078
2700.4,-0.6422432
2701.7,-0.151926
2702.9,-0.27109
2704.1,-2.194788
2705.3,0.097314
2706.6,-0.80426
2707.8,-0.57014
2709,-0.139786
2710.2,-0.61636
2711.4,-1.32477
2712.6,-1.63886
2713.9,1.149394
2715.1,0.17234
2716.3,0.631314
2717.5,2.19212
2718.7,-0.305986
2719.9,0.0937101999999998
2721.2,-0.221708
2722.4,0.18178
2723.6,-0.719094
2724.8,-0.447794
2726,0
2727.2,0.85634
2728.4,1.00449
2729.6,-0.5589876
2730.8,1.3711
2732,1.731456
2733.3,1.601168
2734.5,0.28614
2735.7,1.89782
2736.9,0.731258
2738.1,-0.204568
2739.3,1.77148
2740.5,0.649272
2741.7,2.0397
2742.9,-0.51298936
2744.1,0.525024
2745.3,-0.58242
2746.5,1.99372
2747.7,0.95734
2748.9,2.2037
2750.1,4.306478
2751.3,2.635294
2752.5,-0.194784
2753.7,0.224146
2754.9,1.962528
2756,3.702132
2757.2,2.0526424
2758.4,3.934
2759.6,1.456862
2760.8,3.197142
2762,3.50728
2763.2,3.23058
2764.4,2.796852
2765.6,2.886196
2766.8,4.461474
2767.9,3.521374
2769.1,2.932052
2770.3,2.093714
2771.5,3.667694
2772.7,2.953128
2773.9,2.182242
2775.1,3.84584
2776.2,2.818291
2777.4,4.15761
2778.6,3.24430412
2779.8,5.569446
2781,2.470124
2782.1,3.268004
2783.3,5.987828
2784.5,2.72934
2785.7,4.0057
2786.8,4.77332
2788,3.3147
2789.2,2.013022
2790.4,1.361696
2791.5,4.03306
2792.7,0.264438
2793.9,-0.0450679999999998
2795.1,-0.0840800000000002
2796.2,2.597678
2797.4,0.3468594
2798.6,2.641909
2799.7,1.29452
2800.9,0.0571599999999999
2802.1,1.828002
2803.2,1.17712
2804.4,1.354992
2805.6,2.22702
2806.7,-0.33598
2807.9,0.742442
2809.1,2.846028
2810.2,3.546672
2811.4,1.89078
2812.6,0.90274
2813.7,1.887344
2814.9,1.86658
2816,3.98594
2817.2,0.575996
2818.4,0
2819.5,2.81716
2820.7,0.24802
2821.8,3.154534
2823,2.31742
2824.1,3.42749
2825.3,4.3266
2826.4,1.005758
2827.6,1.797374
2828.7,3.117884
2829.9,1.127864
2831,0.71084
2832.2,1.83094
2833.3,-0.0978120000000001
2834.5,3.0256
2835.6,0.822842
2836.8,2.3696
2837.9,1.13692
2839.1,0.39962
2840.2,1.28152
2841.4,-0.95262
2842.5,-1.15842
2843.7,-0.03046
2844.8,-0.975552
2845.9,-0.0806760000000001
2847.1,-0.735429
2848.2,-0.481718
2849.4,1.673118
2850.5,-0.13196
2851.7,-1.28064
2852.8,0.37423
2853.9,0.254978
2855.1,-0.83062
2856.2,-1.082982
2857.3,-3.155796
2858.5,0.623938
2859.6,0.26236
2860.7,0.0176399999999999
2861.9,0.07738
2863,0.5139
2864.1,-0.00450199999999996
2865.3,-1.3131918
2866.4,-2.19007
2867.5,-1.448642
2868.7,-1.926846
2869.8,-0.408164
2870.9,-1.961088
2872,-1.294
2873.2,-1.093686
2874.3,-1.143478
2875.4,-1.7008
2876.5,-3.29292
2877.7,0.64002
2878.8,-1.557084
2879.9,0.86086
2881,-0.810402
2882.2,1.87662
2883.3,1.236004
2884.4,1.69782
2885.5,0.741406
2886.6,4.40575
2887.8,0.77398
2888.9,0.252042
2890,7.0038
2891.1,5.94584
2892.2,5.669456
2893.3,6.68566
2894.4,4.917612
2895.6,6.78646
2896.7,6.4442
2897.8,8.45096
2898.9,9.5004
2900,9.97472
2901.1,10.51974
2902.2,13.19
2903.3,13.2214
2904.4,13.65
2905.6,15.38792
2906.7,13.401
2907.8,17.0908
2908.9,20.2396
2910,22.726
2911.1,22.715
2912.2,22.5178
2913.3,24.6978
2914.4,27.281
2915.5,26.347
2916.6,29.5812
2917.7,29.3962
2918.8,30.4406
2919.9,33.7092
2921,33.9704
2922.1,38.7692
2923.2,37.1894
2924.3,40.9102
2925.4,42.516
2926.5,45.1618
2927.6,45.898
2928.7,45.1976
2929.8,49.7202
2930.8,48.3482
2931.9,50.012
2933,53.4394
2934.1,53.337
2935.2,53.572
2936.3,55.5826
2937.4,54.4366
2938.5,58.1046
2939.6,56.8724
2940.6,60.0698
2941.7,59.281
2942.8,61.4114
2943.9,60.6762
2945,61.6416
2946.1,58.6862
2947.2,59.8904
2948.2,59.3542
2949.3,58.1288
2950.4,59.685
2951.5,56.2534
2952.6,55.2982
2953.6,58.4694
2954.7,53.0894
2955.8,52.5372
2956.9,49.9934
2957.9,49.7606
2959,48.14
2960.1,41.6768
2961.2,37.6974
2962.2,41.1512
2963.3,40.0036
2964.4,38.8614
2965.5,34.7286
2966.5,34.335
2967.6,32.0372
2968.7,29.4036
2969.7,27.466
2970.8,30.0492
2971.9,29.3186
2973,24.6362
2974,22.0076
2975.1,26.9494
2976.2,21.884
2977.2,23.8252
2978.3,21.634
2979.3,19.5374
2980.4,19.7594
2981.5,18.2836
2982.5,22.0376
2983.6,16.801
2984.7,20.7204
2985.7,19.045
2986.8,17.0082
2987.8,20.7078
2988.9,17.7738
2989.9,18.6598
2991,19.8284
2992.1,22.5794
2993.1,21.519
2994.2,19.4728
2995.2,21.3714
2996.3,19.848
2997.3,23.0844
2998.4,25.0268
2999.4,26.2546
3000.5,23.7816
3001.5,24.6162
3002.6,23.363
3003.6,25.7924
3004.7,22.1756
3005.7,27.9272
3006.8,23.4348
3007.8,29.1354
3008.9,29.0858
3009.9,27.8512
3011,32.4486
3012,29.2524
3013,29.6944
3014.1,33.1574
3015.1,33.8894
3016.2,33.9656
3017.2,37.6764
3018.2,38.1698
3019.3,34.9424
3020.3,37.069
3021.4,40.0854
3022.4,37.6888
3023.4,36.0942
3024.5,39.6704
3025.5,40.6662
3026.5,40.4882
3027.6,44.1568
3028.6,43.063
3029.6,46.306
3030.7,43.3576
3031.7,48.8362
3032.7,49.2338
3033.8,50.0566
3034.8,50.9152
3035.8,51.0952
3036.9,52.573
3037.9,54.5638
3038.9,54.105
3039.9,53.6818
3041,55.85
3042,59.17
3043,59.3596
3044,60.3248
3045.1,64.152
3046.1,61.2552
3047.1,63.998
3048.1,67.7678
3049.2,67.047
3050.2,69.6444
3051.2,70.2396
3052.2,68.8826
3053.2,71.1362
3054.3,73.028
3055.3,74.2294
3056.3,73.259
3057.3,75.2922
3058.3,75.8476
3059.3,78.1532
3060.3,79.8054
3061.4,80.085
3062.4,82.7492
3063.4,84.424
3064.4,84.0064
3065.4,87.6726
3066.4,89.8496
3067.4,88.3998
3068.4,90.5352
3069.5,92.197
3070.5,90.7524
3071.5,92.9178
3072.5,98.508
3073.5,99.2322
3074.5,98.7998
3075.5,102.035
3076.5,106.424
3077.5,106.534
3078.5,106.2116
3079.5,108.0318
3080.5,108.1596
3081.5,111.102
3082.5,111.176
3083.5,112.222
3084.5,113.604
3085.5,118.942
3086.5,119.62
3087.5,118.95
3088.5,121.424
3089.5,121.704
3090.5,124.306
3091.5,127.588
3092.5,127.484
3093.5,131.396
3094.5,132.5
3095.5,132.032
3096.4,137.274
3097.4,133.862
3098.4,136.036
3099.4,143.802
3100.4,143.948
3101.4,145.416
3102.4,150.904
3103.4,150.786
3104.4,147.814
3105.3,151.322
3106.3,156.828
3107.3,158.218
3108.3,160.77
3109.3,159.006
3110.3,163.642
3111.3,163.952
3112.2,167.028
3113.2,170.684
3114.2,169.684
3115.2,171.976
3116.2,175.18
3117.1,175.428
3118.1,177.14
3119.1,179.376
3120.1,180.658
3121,179.82
3122,183.378
3123,186.358
3124,189.436
3124.9,192.736
3125.9,191.966
3126.9,197.122
3127.9,195.398
3128.8,199.664
3129.8,200.748
3130.8,202.006
3131.7,203.094
3132.7,204.172
3133.7,205.676
3134.7,208.502
3135.6,209.36
3136.6,215.184
3137.6,212.562
3138.5,211.456
3139.5,215.32
3140.4,216.88
3141.4,222.338
3142.4,221.236
3143.3,219.944
3144.3,224.896
3145.3,225.878
3146.2,225.13
3147.2,229.358
3148.1,229.312
3149.1,230.836
3150.1,234.86
3151,236.166
3152,239.668
3152.9,237.736
3153.9,238.558
3154.8,244.706
3155.8,240.012
3156.7,240.026
3157.7,243.248
3158.6,247.816
3159.6,239.482
3160.6,248.17
3161.5,250.352
3162.5,253.574
3163.4,251.77
3164.4,252.124
3165.3,247.456
3166.2,251.028
3167.2,250.82
3168.1,254.796
3169.1,253.466
3170,254.772
3171,254.86
3171.9,256.778
3172.9,253.902
3173.8,256.636
3174.7,256.664
3175.7,258.29
3176.6,259.886
3177.6,255.212
3178.5,257.102
3179.5,258.946
3180.4,260.182
3181.3,260.856
3182.3,259.608
3183.2,265.222
3184.1,260.936
3185.1,260.978
3186,257.106
3186.9,262.422
3187.9,261.63
3188.8,260.71
3189.7,258.34
3190.7,258.208
3191.6,259.18
3192.5,262.104
3193.5,257.416
3194.4,261.332
3195.3,260.838
3196.3,261.284
3197.2,258.572
3198.1,259.714
3199,261.634
3200,254.7
3200.9,254.704
3201.8,257.232
3202.7,256.78
3203.7,252.474
3204.6,250.828
3205.5,251.888
3206.4,251.248
3207.3,252.546
3208.3,248.706
3209.2,249.092
3210.1,244.19
3211,242.142
3211.9,239.392
3212.9,240.874
3213.8,235.936
3214.7,232.996
3215.6,235.094
3216.5,232.616
3217.4,229.24
3218.4,229.42
3219.3,227.854
3220.2,222.718
3221.1,218.878
3222,221.296
3222.9,217.3
3223.8,212.072
3224.7,211.744
3225.6,207.854
3226.6,207.786
3227.5,207.442
3228.4,203.32
3229.3,197.872
3230.2,197.826
3231.1,194.628
3232,192.612
3232.9,186.312
3233.8,180.056
3234.7,180.308
3235.6,173.8
3236.5,172.544
3237.4,167.928
3238.3,166.592
3239.2,163.098
3240.1,155.842
3241,155.298
3241.9,152.48
3242.8,145.29
3243.7,140.408
3244.6,131.758
3245.5,129.408
3246.4,120.35
3247.3,114.538
3248.2,106.124
3249.1,97.6442
3250,85.4318
3250.9,81.5784
3251.8,69.0864
3252.7,56.4154
3253.5,44.486
3254.4,30.793
3255.3,11.98992
3256.2,-8.29482
