250.34,-3.19458
252.57,-1.28498
254.8,0
257.03,-8.95674
259.26,-5.971388
261.48,-2.6443212
263.71,-1.997234
265.94,-6.172806
268.16,2.888558
270.39,-3.99758
272.61,0.21036
274.84,-1.892014
277.06,0.61687
279.28,2.288972
281.51,-4.30932
283.73,-0.22954
285.95,1.56798
288.17,-0.468699999999999
290.39,1.0816
292.61,7.70348
294.83,-6.37546
297.05,10.2398
299.27,13.244454
301.48,11.09586
303.7,19.1164
305.91,16.5208
308.13,17.6156
310.35,13.538522
312.56,13.93963
314.77,15.66146
316.99,15.7199
319.2,9.00142
321.41,20.458
323.62,12.76608
325.83,-0.250966
328.04,1.89826
330.25,-1.9075
332.46,-3.58748
334.67,-1.052648
336.88,-0.58652
339.08,-5.453954
341.29,-5.20395
343.5,-1.8164
345.7,8.354
347.91,2.501864
350.11,11.44874
352.31,12.150234
354.52,19.4382
356.72,23.26
358.92,22.56072
361.12,21.5248
363.32,18.8384
365.52,23.9822
367.72,26.2434
369.92,12.522122
372.12,27.0204
374.32,40.7614
376.51,83.1802
378.71,113.8838
380.9,94.1172
383.1,61.4516
385.29,30.2226
387.49,14.34404
389.68,4.099516
391.87,0.32554
394.07,-2.561472
396.26,2.198828
398.45,7.702404
400.64,13.56676
402.83,19.34
405.02,26.1185
407.21,40.2266
409.39,60.9534
411.58,129.252
413.77,354.076
415.95,626.81
418.14,700
420.32,488.722
422.51,245.31
424.69,128.632
426.87,93.913
429.06,96.3702
431.24,85.9782
433.42,64.2116
435.6,30.92
437.78,18.21354
439.96,7.38378
442.14,-0.1346896
444.31,1.58756
446.49,24.3208
448.67,32.3486
450.84,28.0758
453.02,14.80416
455.19,-1.06244
457.37,-1.13182
459.54,-10.67102
461.71,-6.48736
463.89,-4.66416
466.06,-4.11689
468.23,-1.46066
470.4,-13.20136
472.57,-8.79232
474.74,-10.13696
476.91,-1.5363
479.07,-3.094084
481.24,1.195316
483.41,0.939209
485.57,3.23448
487.74,3.45385
489.9,10.3364
492.07,1.659286
494.23,-0.8382438
496.4,-7.58808
498.56,-5.09092
500.72,-8.41838
502.88,-10.644886
505.04,-10.457872
507.2,-8.40498
509.36,-7.59436
511.52,-9.98704
513.68,-8.1038
515.83,-9.82334
517.99,-0.642684
520.14,-3.413716
522.3,-2.393202
524.45,-1.480714
526.61,2.26961
528.76,-1.0183
530.91,-1.197824
533.07,8.45162
535.22,6.05658
537.37,0.797818
539.52,10.43936
541.67,3.14255
543.82,1.15308
545.97,2.37446
548.11,3.98108
550.26,-0.57122
552.41,-4.41632
554.55,-9.9115
556.7,-1.772878
558.84,2.17202
560.98,3.414102
563.13,2.0514
565.27,3.33932
567.41,3.885964
569.55,14.35906
571.69,37.2434
573.83,76.493
575.97,114.95
578.11,114.902
580.25,81.2998
582.39,49.706
584.52,28.29
586.66,17.7232
588.79,17.81562
590.93,12.76554
593.06,12.71324
595.19,15.57866
597.33,4.48804
599.46,-2.60206
601.59,-0.42714
603.72,-3.9015
605.85,5.27498
607.98,-0.0844564
610.11,9.5828
612.24,3.249994
614.36,7.20394
616.49,5.197018
618.62,1.41796
620.74,3.44938
622.87,0.0910599999999995
624.99,0.5655074
627.11,-3.1813028
629.24,-4.27652
631.36,-11.701056
633.48,4.907972
635.6,-1.409058
637.72,-4.134
639.84,0.92088
641.96,0.0033086
644.08,-0.14522
646.2,-4.268
648.31,-3.245
650.43,-8.22464
652.54,-3.56808
654.66,-12.183076
656.77,-4.33248
658.89,-3.880748
661,-2.983018
663.11,3.249024
665.22,5.54784
667.33,7.8683
669.44,0.585779999999999
671.55,14.90572
673.66,16.94646
675.77,24.3037
677.88,40.0048
679.98,41.76244
682.09,50.507
684.2,61.4182
686.3,75.3242
688.4,84.007
690.51,105.4856
692.61,119.0138
694.71,129.016
696.81,140.22
698.92,139.648
701.02,148.014
703.11,157.758
705.21,168.168
707.31,174.378
709.41,173.206
711.51,171.258
713.6,169.312
715.7,159.462
717.79,142.57
719.89,125.198
721.98,111.394
724.07,92.0044
726.16,78.9988
728.25,70.4798
730.35,63.8394
732.44,59.8248
734.52,62.8434
736.61,66.5792
738.7,80.2518
740.79,95.7296
742.87,129.436
744.96,168.016
747.05,210.486
749.13,241.85
751.21,244.848
753.3,213.866
755.38,160.744
757.46,119.268
759.54,87.3982
761.62,55.0494
763.7,38.9956
765.78,28.5794
767.86,18.41274
769.94,6.68614
772.01,5.00182
774.09,0.34002
776.17,-0.913406
778.24,-6.45456
780.32,-5.6132
782.39,-8.32798
784.46,-7.16374
786.53,3.5215062
788.61,5.16956
790.68,-2.79216
792.75,7.00652
794.82,3.126354
796.89,-3.19966
798.95,-4.77258
801.02,-3.994016
803.09,-5.55084
805.15,-5.186686
807.22,-4.5238
809.28,-1.22202
811.35,-1.68716
813.41,-1.8133
815.47,-1.87413
817.53,-4.115552
819.6,-5.15782
821.66,-7.417912
823.72,-4.96588
825.78,-3.162974
827.83,-10.94974
829.89,-11.7748
831.95,-5.4016
834,-0.809392
836.06,-2.137772
838.12,-3.686442
840.17,0.16134
842.22,1.371264
844.28,-4.22028
846.33,-1.33142
848.38,-0.3495508
850.43,2.17251
852.48,2.260216
854.53,-1.333988
856.58,7.004552
858.63,0.815656
860.67,2.37128
862.72,7.78892
864.77,5.93984
866.81,4.26862
868.86,-0.198084
870.9,-0.46228
872.94,3.319402
874.98,-0.9057004
877.03,-3.44207
879.07,0.900586
881.11,2.00416
883.15,-0.9555714
885.19,1.73624
887.22,0.662032
889.26,0.140786
891.3,6.914186
893.33,1.53388
895.37,1.1749456
897.4,-1.07938
899.44,0
901.47,-4.572676
903.5,-1.83354
905.54,-0.08328
907.57,1.1446
909.6,3.59852
911.63,-1.16202
913.66,-0.93038
915.68,2.0909
917.71,-0.47014
919.74,-3.5764
921.76,-4.12208
923.79,-10.38472
925.82,-3.350802
927.84,1.969618
929.86,4.85312
931.89,0.3047
933.91,3.549032
935.93,-3.325
937.95,2.65822
939.97,0.4762
941.99,1.22312
944.01,-5.185606
946.02,-1.576364
948.04,5.29032
950.06,-4.80842
952.07,-3.008372
954.09,-2.088588
956.1,-0.95878
958.12,1.32508
960.13,2.00338
962.14,-1.67944
964.15,-2.65046
966.16,-10.29028
968.17,-10.96858
970.18,1.081488
972.19,-5.30884
974.2,-5.412934
976.2,-0.8282
978.21,1.15188
980.22,-4.23273
982.22,-0.830886
984.22,2.2044
986.23,1.101
988.23,-2.75624
990.23,3.04216
992.23,3.22545
994.24,1.36568
996.23,-3.442228
998.23,2.14898
1000.2,3.498016
1002.2,6.57638
1004.2,6.2171
1006.2,10.36334
1008.2,7.44946
1010.2,8.68692
1012.2,13.07088
1014.2,10.62882
1016.2,11.0982
1018.2,12.26734
1020.2,14.26118
1022.2,14.55066
1024.2,19.4846
1026.1,19.0592
1028.1,22.547
1030.1,30.2926
1032.1,26.8214
1034.1,28.9396
1036.1,28.88
1038.1,29.3318
1040.1,31.422
1042,28.7036
1044,34.99
1046,40.9452
1048,45.3772
1050,48.3894
1051.9,47.5444
1053.9,48.1026
1055.9,47.2156
1057.9,42.9424
1059.9,46.9006
1061.8,43.2944
1063.8,40.5674
1065.8,42.0548
1067.8,36.1946
1069.7,33.241
1071.7,35.5352
1073.7,31.765
1075.6,29.8746
1077.6,24.9662
1079.6,25.8234
1081.5,17.25134
1083.5,16.51124
1085.5,15.44384
1087.5,12.36582
1089.4,9.8101
1091.4,9.67368
1093.3,8.88358
1095.3,0.53877186
1097.3,3.303452
1099.2,8.909882
1101.2,6.34578
1103.2,4.14214
1105.1,2.97796
1107.1,4.043678
1109,0.63604
1111,-0.6692
1113,-2.252244
1114.9,6.03426
1116.9,0.38682
1118.8,-1.7715
1120.8,4.90042
1122.7,9.47438
1124.7,7.92246
1126.6,2.24932
1128.6,3.37324
1130.5,6.154574
1132.5,6.667308
1134.4,5.233464
1136.4,10.40076
1138.3,11.88632
1140.3,13.18358
1142.2,14.809
1144.2,14.11354
1146.1,19.3952
1148.1,14.25526
1150,23.1446
1151.9,19.273
1153.9,18.983
1155.8,26.7946
1157.8,25.9428
1159.7,30.384
1161.6,34.7128
1163.6,39.1268
1165.5,39.9168
1167.5,45.1632
1169.4,52.0848
1171.3,53.7058
1173.3,62.4848
1175.2,59.5298
1177.1,69.403
1179.1,76.9488
1181,86.6198
1182.9,94.8454
1184.9,95.7976
1186.8,109.176
1188.7,117.102
1190.6,127.254
1192.6,139.684
1194.5,157.498
1196.4,165.436
1198.4,171.432
1200.3,189.362
1202.2,191.364
1204.1,207.678
1206,215.962
1208,215.494
1209.9,227.944
1211.8,242.508
1213.7,240.072
1215.6,243.66
1217.6,245.56
1219.5,248.308
1221.4,245.218
1223.3,238.94
1225.2,236.588
1227.1,222.572
1229.1,219.826
1231,209.432
1232.9,200.22
1234.8,197.852
1236.7,183.62
1238.6,174.584
1240.5,169.484
1242.4,159.722
1244.3,149.134
1246.2,144.418
1248.1,133.498
1250.1,126.198
1252,114.63
1253.9,114.536
1255.8,105.697
1257.7,97.0028
1259.6,101.2618
1261.5,94.784
1263.4,95.5382
1265.3,92.4816
1267.2,92.2406
1269.1,88.2658
1271,92.5424
1272.9,92.2106
1274.8,89.7876
1276.6,87.1354
1278.5,86.8108
1280.4,75.5296
1282.3,69.3568
1284.2,63.5846
1286.1,62.3182
1288,59.9096
1289.9,57.4772
1291.8,46.0246
1293.7,48.6678
1295.6,45.8886
1297.4,41.4502
1299.3,42.9408
1301.2,43.355
1303.1,42.3932
1305,43.8596
1306.9,39.0848
1308.7,39.1462
1310.6,37.315
1312.5,41.2646
1314.4,38.7136
1316.3,34.6184
1318.1,34.1398
1320,40.115
1321.9,37.9516
1323.8,43.9888
1325.7,40.3898
1327.5,44.7266
1329.4,48.526
1331.3,45.69
1333.1,46.884
1335,46.9038
1336.9,48.9064
1338.8,53.7548
1340.6,56.8918
1342.5,63.3812
1344.4,72.6456
1346.2,82.3502
1348.1,92.78
1350,101.6354
1351.8,104.8286
1353.7,106.734
1355.6,107.4924
1357.4,105.8598
1359.3,104.0436
1361.1,100.1402
1363,107.03
1364.9,111.844
1366.7,122.114
1368.6,133.24
1370.4,154.108
1372.3,169.292
1374.2,194.676
1376,216.634
1377.9,254.01
1379.7,278.432
1381.6,303.186
1383.4,314.786
1385.3,303.866
1387.1,287.8
1389,278.662
1390.8,272.896
1392.7,278.546
1394.5,291.936
1396.4,310.032
1398.2,351.164
1400.1,347.98
1401.9,342.38
1403.8,315.218
1405.6,273.462
1407.4,239.534
1409.3,197.744
1411.1,164.182
1413,137.366
1414.8,118.61
1416.6,101.6924
1418.5,82.9984
1420.3,74.5104
1422.2,66.0838
1424,59.2642
1425.8,45.4418
1427.7,45.9514
1429.5,38.9146
1431.3,34.0288
1433.2,24.7796
1435,22.8254
1436.8,20.5736
1438.7,16.8352
1440.5,14.18532
1442.3,15.9925
1444.1,13.51348
1446,9.78732
1447.8,3.204896
1449.6,6.8913608
1451.4,4.59778
1453.3,0.29204
1455.1,0.867462
1456.9,-0.4834758
1458.7,1.341092
1460.6,-0.0456000000000001
1462.4,-1.522354
1464.2,-5.32402
1466,-8.44254
1467.8,-0.78502
1469.6,-7.91826
1471.5,-1.926402
1473.3,-2.64518
1475.1,-6.961268
1476.9,-7.354634
1478.7,-4.38722
1480.5,-6.64246
1482.4,-6.47236
1484.2,-5.11532
1486,-8.13212
1487.8,-4.07734
1489.6,-8.252576
1491.4,-11.90596
1493.2,-11.23024
1495,-7.06064
1496.8,-6.1859
1498.6,-9.96102
1500.4,-8.398248
1502.2,-11.40044
1504,-6.56836
1505.8,-7.83806
1507.6,-6.47282
1509.4,-7.76222
1511.2,-5.3738
1513,-9.14112
1514.8,-10.74786
1516.6,-5.73848
1518.4,-5.74189
1520.2,-6.50458
1522,-2.71552
1523.8,-6.59586
1525.6,-4.91956
1527.4,0.276798
1529.2,0.4344
1531,-0.460266
1532.8,-1.7373
1534.6,-4.153614
1536.4,3.464594
1538.2,-1.90775
1539.9,4.55868
1541.7,3.081
1543.5,10.227646
1545.3,7.790348
1547.1,9.99754
1548.9,15.05492
1550.7,26.7662
1552.4,30.31902
1554.2,39.069
1556,43.5494
1557.8,39.4194
1559.6,41.0594
1561.3,37.1684
1563.1,39.814
1564.9,41.6256
1566.7,49.1124
1568.4,48.529
1570.2,54.0068
1572,61.9148
1573.8,71.9768
1575.5,72.3594
1577.3,81.3672
1579.1,84.0032
1580.9,93.0216
1582.6,97.8552
1584.4,106.0066
1586.2,112.748
1587.9,118.112
1589.7,123.034
1591.5,140.34
1593.2,145.126
1595,150.918
1596.8,157.944
1598.5,166.578
1600.3,179.516
1602,191.664
1603.8,195.692
1605.6,206.246
1607.3,221.792
1609.1,230.852
1610.8,240.01
1612.6,249.48
1614.4,256.702
1616.1,269.284
1617.9,278.056
1619.6,285.04
1621.4,294.874
1623.1,305.916
1624.9,311.09
1626.6,314.654
1628.4,329.556
1630.1,333.708
1631.9,339.434
1633.6,344.994
1635.4,351.906
1637.1,354.52
1638.9,359.384
1640.6,358.282
1642.4,362.09
1644.1,360.948
1645.8,364.59
1647.6,372.094
1649.3,367.802
1651.1,365.382
1652.8,364.69
1654.6,366.45
1656.3,363.072
1658,362.5
1659.8,363.966
1661.5,359.482
1663.2,361.112
1665,356.012
1666.7,362.898
1668.4,354.842
1670.2,357.662
1671.9,356.616
1673.6,354.228
1675.4,354.182
1677.1,359.48
1678.8,360.42
1680.5,359.77
1682.3,362.22
1684,365.33
1685.7,377.84
1687.5,380.248
1689.2,391.43
1690.9,404.658
1692.6,412.17
1694.3,418.03
1696.1,434.726
1697.8,440.656
1699.5,456.604
1701.2,469.56
1702.9,480.252
1704.7,488.56
1706.4,506.022
1708.1,509.86
1709.8,516.87
1711.5,520.534
1713.2,526.06
1714.9,523.376
1716.7,522.9
1718.4,511.426
1720.1,509.684
1721.8,497.094
1723.5,495.248
1725.2,480.49
1726.9,471.658
1728.6,455.5
1730.3,442.856
1732,423.54
1733.7,406.574
1735.4,391.378
1737.1,361.016
1738.8,337.372
1740.6,313.398
1742.3,280.046
1744,257.634
1745.7,230.792
1747.3,203.114
1749,180.696
1750.7,165.624
1752.4,139.428
1754.1,123.026
1755.8,105.2258
1757.5,96.9204
1759.2,85.6348
1760.9,73.1838
1762.6,59.8018
1764.3,56.8342
1766,45.9312
1767.7,41.1796
1769.4,37.2244
1771.1,31.4118
1772.7,32.2902
1774.4,26.217
1776.1,25.3314
1777.8,20.5706
1779.5,16.629
1781.2,17.371
1782.8,12.53482
1784.5,9.87628
1786.2,7.22948
1787.9,-0.445224
1789.6,4.9114
1791.2,9.55584
1792.9,0.48628
1794.6,-1.272188
1796.3,1.676488
1798,-0.5121
1799.6,1.6255896
1801.3,-3.19887
1803,-1.59412
1804.7,-1.583576
1806.3,-2.40138
1808,-3.9925
1809.7,-5.177506
1811.3,-4.80626
1813,-2.280768
1814.7,-2.998818
1816.3,-2.31516
1818,-3.81608
1819.7,-7.69044
1821.3,-2.237174
1823,-6.77964
1824.7,-1.77512
1826.3,-4.8259
1828,-2.796726
1829.7,-4.07268
1831.3,-0.178486
1833,-4.712808
1834.6,-6.600162
1836.3,-0.5791
1838,-2.4016
1839.6,-2.12858
1841.3,-3.995648
1842.9,-3.46724
1844.6,-2.019411
1846.2,-1.100888
1847.9,-5.74092
1849.5,-0.188254
1851.2,-0.661148
1852.8,-0.527264
1854.5,3.7603
1856.1,-1.09152
1857.8,0.0577400000000001
1859.4,-2.065002
1861.1,1.80424
1862.7,-0.29125
1864.4,2.483418
1866,1.221552
1867.7,-1.91132
1869.3,-1.096631
1871,-2.36348
1872.6,2.6317982
1874.2,4.1553
1875.9,-0.416818
1877.5,1.025341
1879.2,0
1880.8,1.24786
1882.4,-6.21296
1884.1,1.6265
1885.7,-1.0515
1887.3,-1.92668
1889,0.00384799999999998
1890.6,-1.442052
1892.2,-3.1508
1893.9,-1.080144
1895.5,-6.4357564
1897.1,0.59079
1898.8,2.26182
1900.4,0.834368
1902,-4.624784
1903.7,-1.649923
1905.3,-3.835704
1906.9,-2.0416
1908.5,-1.168834
1910.2,2.002006
1911.8,0.21382
1913.4,-0.62102
1915,-0.72134
1916.7,1.467592
1918.3,-1.08132
1919.9,-2.32368
1921.5,-0.73331
1923.1,0.265772
1924.8,0.42824
1926.4,-3.00368
1928,-2.331102
1929.6,0.95878
1931.2,2.869998
1932.8,-2.07476
1934.4,2.227844
1936.1,2.406678
1937.7,1.95102
1939.3,4.1883714
1940.9,2.44134
1942.5,3.715302
1944.1,-0.9380474
1945.7,-0.7508
1947.3,3.685668
1948.9,2.34476
1950.5,0.601372
1952.1,-0.0275392
1953.8,1.235558
1955.4,0.840806
1957,0.34704
1958.6,-0.2617
1960.2,2.14388
1961.8,3.97806
1963.4,1.2799622
1965,-0.32328
1966.6,-0.18086
1968.2,-0.56552
1969.8,2.0316
1971.4,1.85138
1973,3.5998
1974.5,2.82852
1976.1,2.20346
1977.7,-2.88424
1979.3,-1.999038
1980.9,-0.072912
1982.5,0.11248
1984.1,-0.285116
1985.7,-1.722374
1987.3,1.26133
1988.9,-0.97246
1990.5,0.501774
1992,0.134496
1993.6,1.20824
1995.2,0.908918
1996.8,0.88324
1998.4,1.6021
2000,-3.86738
2001.6,1.098884
2003.1,-2.31452
2004.7,-1.624478
2006.3,-0.723884
2007.9,-0.732974
2009.5,-0.0952999999999999
2011,0.1584
2012.6,1.177006
2014.2,0.75152
2015.8,2.78292
2017.3,-1.977
2018.9,-0.702794
2020.5,3.740352
2022.1,3.502606
2023.6,0.342562
2025.2,4.468084
2026.8,0.0246200000000002
2028.3,0.398588
2029.9,3.06688
2031.5,-4.64974
2033,5.14338
2034.6,2.33382
2036.2,0.946218
2037.7,-3.25724
2039.3,2.354766
2040.9,0.0728400000000004
2042.4,1.52646
2044,0.43432
2045.6,6.76062
2047.1,7.7416
2048.7,4.380956
2050.2,0.81416
2051.8,4.73836
2053.4,5.67372
2054.9,0.571112
2056.5,2.75956
2058,2.957846
2059.6,9.056158
2061.1,8.189468
2062.7,1.182872
2064.2,1.21944
2065.8,3.88638
2067.3,7.40534
2068.9,0.952874
2070.4,4.96334
2072,-4.25566
2073.5,3.53673
2075.1,4.0509
2076.6,2.506924
2078.2,-2.060704
2079.7,2.90532
2081.3,6.9774982
2082.8,8.6112
2084.4,11.08318
2085.9,10.72788
2087.4,3.72231
2089,6.07364
2090.5,9.74326
2092.1,8.88348
2093.6,5.408922
2095.1,6.03879
2096.7,8.94586
2098.2,10.74856
2099.7,8.93022
2101.3,6.46802
2102.8,5.87022
2104.3,8.42342
2105.9,10.32796
2107.4,10.10252
2108.9,8.33916
2110.5,7.43342
2112,6.921504
2113.5,7.54238
2115.1,6.83066
2116.6,9.69458
2118.1,9.5474
2119.6,7.66036
2121.2,9.26108
2122.7,8.1503096
2124.2,10.00568
2125.7,11.26372
2127.3,9.7791622
2128.8,15.46304
2130.3,17.3338
2131.8,30.0234
2133.3,39.966
2134.9,63.1364
2136.4,88.0516
2137.9,96.8802
2139.4,83.147
2140.9,64.4784
2142.4,39.5714
2144,27.2916
2145.5,18.3718
2147,18.13204
2148.5,16.79034
2150,8.556192
2151.5,7.39906
2153,6.790728
2154.5,6.93428
2156,4.61855
2157.6,3.91953
2159.1,4.98162
2160.6,3.10243
2162.1,5.82562
2163.6,0.5029
2165.1,-0.419942
2166.6,-0.5864
2168.1,-1.42176
2169.6,-4.0668
2171.1,3.7864422
2172.6,3.209964
2174.1,-0.226928
2175.6,3.8194
2177.1,-1.966542
2178.6,2.48714
2180.1,-1.169808
2181.6,-3.6571
2183.1,-2.83266
2184.6,-1.98258
2186.1,-4.44416
2187.5,0.176008
2189,0.8757
2190.5,-4.2084564
2192,-0.527514
2193.5,-1.51236
2195,-3.404148
2196.5,-1.5447
2198,-0.82626
2199.5,-1.4189
2201,-2.25662
2202.4,-5.738858
2203.9,-4.99524
2205.4,-0.9631
2206.9,-3.45012
2208.4,-3.81974
2209.9,-3.799248
2211.3,0.55834
2212.8,-3.84484
2214.3,-1.928328
2215.8,-1.35836
2217.3,-1.825586
2218.7,-4.8037
2220.2,-3.702988
2221.7,-3.929436
2223.2,-3.54934
2224.6,-5.97046
2226.1,-0.75586
2227.6,-6.09758
2229.1,-2.71958
2230.5,-3.676078
2232,-3.1969
2233.5,-4.578202
2234.9,-5.174998
2236.4,-0.347998
2237.9,-2.10698
2239.3,-4.01908
2240.8,-0.7818
2242.3,-2.75286
2243.7,-1.057046
2245.2,0.04196
2246.7,-2.58304
2248.1,-3.595586
2249.6,-3.40893
2251.1,-2.873834
2252.5,0.12774
2254,-3.0322496
2255.4,-3.144346
2256.9,-2.857594
2258.3,-0.79924
2259.8,-4.327
2261.3,-3.43874
2262.7,-0.885556
2264.2,-0.207892
2265.6,-0.109776
2267.1,-0.000651999999999786
2268.5,0.83964
2270,-0.73148
2271.4,-3.778606
2272.9,1.581168
2274.3,0
2275.8,1.18072
2277.2,-1.344886
2278.7,-2.51946
2280.1,-0.326044
2281.6,-0.171134
2283,-0.843352
2284.5,-1.522464
2285.9,-4.822002
2287.4,-0.187666
2288.8,-1.36834
2290.2,0.41652
2291.7,-0.650008
2293.1,0.285438
2294.6,-5.11282
2296,-0.40922
2297.4,2.451622
2298.9,1.854426
2300.3,-3.077512
2301.7,0.354564
2303.2,1.946336
2304.6,2.00086
2306,0.56324
2307.5,-0.942122
2308.9,-0.36002
2310.3,0.80318
2311.8,1.820484
2313.2,0.408862
2314.6,-2.12725
2316.1,0.692196
2317.5,0.46954
2318.9,4.647096
2320.3,3.16178
2321.8,4.35094
2323.2,6.2745
2324.6,9.31846
2326,18.6348
2327.5,21.9704
2328.9,31.897
2330.3,27.3694
2331.7,24.0404
2333.2,13.90744
2334.6,9.6655
2336,6.24414
2337.4,7.31468
2338.8,1.27628
2340.2,3.998696
2341.7,6.18198
2343.1,2.04714
2344.5,5.88564
2345.9,4.11994
2347.3,3.871228
2348.7,2.18566
2350.1,-0.73756
2351.6,3.77786
2353,4.393866
2354.4,2.39966
2355.8,-0.2427
2357.2,1.402002
2358.6,-0.72362
2360,5.542792
2361.4,2.9095
2362.8,2.19998
2364.2,1.371226
2365.6,0.98442
2367,6.57558
2368.4,2.9635
2369.8,4.19808
2371.2,6.56412
2372.6,4.62803
2374,4.41026
2375.4,1.59274
2376.8,4.50226
2378.2,1.250684
2379.6,3.218668
2381,4.3734
2382.4,3.6337
2383.8,4.4576484
2385.2,5.128946
2386.6,2.568498
2388,5.92788
2389.4,3.4458
2390.8,6.584848
2392.1,3.3522216
2393.5,4.23746
2394.9,5.722332
2396.3,3.43966
2397.7,2.772588
2399.1,2.41356
2400.5,4.30204
2401.9,2.66454
2403.2,7.52896
2404.6,2.5585
2406,8.83968
2407.4,0.00362400000000012
2408.8,7.56668
2410.2,6.0949
2411.5,4.709254
2412.9,3.249072
2414.3,2.64532
2415.7,0
2417,-0.31384
2418.4,2.855022
2419.8,3.56748
2421.2,5.84251
2422.5,1.00316
2423.9,3.12126
2425.3,3.63874
2426.7,0.66462
2428,6.21104
2429.4,1.19476
2430.8,3.6666
2432.1,2.00958
2433.5,3.186558
2434.9,2.8655
2436.2,2.27036
2437.6,1.8726
2439,0.837964
2440.3,0.959486
2441.7,1.51438
2443.1,1.296072
2444.4,-0.32414
2445.8,-1.4542
2447.2,3.061016
2448.5,0.764294
2449.9,2.15448
2451.2,0.143972
2452.6,0.271252
2454,-0.46084
2455.3,-0.19228
2456.7,-0.7796
2458,-2.899047
2459.4,-1.4357
2460.7,0.38828
2462.1,0.73874
2463.4,-1.220988
2464.8,-1.163292
2466.1,-0.0764580000000002
2467.5,2.55104
2468.8,-1.51102
2470.2,-0.245104
2471.5,-0.4824
2472.9,0.39574
2474.2,-0.26136
2475.6,-0.59572
2476.9,1.9530912
2478.3,-0.68138
2479.6,0.514644
2481,1.8125
2482.3,-2.05672
2483.6,0.60678
2485,-1.389
2486.3,-0.124624
2487.7,2.114016
2489,2.2068658
2490.3,-0.73814
2491.7,1.594134
2493,1.552624
2494.4,5.38522
2495.7,-1.88966
2497,0.56533858
2498.4,0.429656
2499.7,-0.0349159999999998
2501,4.03552
2502.4,3.11966
2503.7,0.52872
2505,-2.22968
2506.4,0.10351918
2507.7,1.083938
2509,-0.987626
2510.3,0.83082
2511.7,-0.2854708
2513,-0.25613106
2514.3,2.01036
2515.6,1.824
2517,2.81562
2518.3,4.99426
2519.6,-1.228122
2520.9,0
2522.3,-0.00207999999999995
2523.6,3.504412
2524.9,3.4741
2526.2,2.18663
2527.5,0.34544
2528.9,-0.16374
2530.2,2.31588
2531.5,0.61427
2532.8,0.883514
2534.1,3.97379
2535.4,1.89416
2536.8,2.3055048
2538.1,1.6615864
2539.4,2.40264
2540.7,2.866
2542,0.66446
2543.3,0.89486
2544.6,-3.20198
2545.9,-0.45702
2547.2,-0.103902
2548.6,1.876562
2549.9,3.9208
2551.2,2.871194
2552.5,2.60252
2553.8,2.34922
2555.1,1.1787
2556.4,2.50332
2557.7,0.507824
2559,3.41476
2560.3,-0.640508
2561.6,2.7756
2562.9,-0.80908
2564.2,0.177704
2565.5,0.6476206
2566.8,-0.57144
2568.1,-0.66544
2569.4,1.63684
2570.7,-2.03594
2572,-0.93124
2573.3,1.901888
2574.6,3.6859
2575.9,-0.544602
2577.1,1.08978
2578.4,1.30338
2579.7,-4.10762
2581,-0.340708
2582.3,-1.6846
2583.6,-0.317056
2584.9,0.204814
2586.2,1.7809902
2587.5,-4.108994
2588.7,-1.8835
2590,1.22182
2591.3,-0.586008
2592.6,-4.65806
2593.9,-3.580404
2595.2,-0.5344744
2596.4,-2.820232
2597.7,-2.210754
2599,-1.01355
2600.3,-3.278004
2601.6,-2.463778
2602.8,-1.653558
2604.1,-2.84938
2605.4,-3.65278
2606.7,-3.04686
2608,-1.112248
2609.2,-3.61746
2610.5,-3.58702
2611.8,-6.50074
2613,-4.1320348
2614.3,-4.307678
2615.6,-2.0524
2616.9,-3.09206
2618.1,-4.31418
2619.4,-4.79474
2620.7,-4.969118
2621.9,-2.92706
2623.2,-5.177996
2624.5,-6.89446
2625.7,-4.83648
2627,-1.414286
2628.3,-0.71096
2629.5,0
2630.8,-6.8866314
2632.1,-8.04946
2633.3,-3.201576
2634.6,-3.5528
2635.8,-2.94231
2637.1,-6.24096
2638.4,-7.980668
2639.6,-7.1928
2640.9,-4.68966
2642.1,-6.51266
2643.4,-5.0925224
2644.6,-7.39406
2645.9,-4.015768
2647.2,-10.77162
2648.4,-5.48916
2649.7,-7.75242
2650.9,-5.176392
2652.2,-10.92368
2653.4,-6.48288
2654.7,-5.88026
2655.9,-9.96098
2657.2,-6.952974
2658.4,-2.77304
2659.7,-8.31682
2660.9,-4.03656
2662.2,-8.6239186
2663.4,-8.94662
2664.6,-4.397634
2665.9,-4.00004
2667.1,-5.51384
2668.4,-7.3274
2669.6,-4.23264
2670.9,-6.34344
2672.1,-6.832456
2673.3,-4.43976
2674.6,-5.59838
2675.8,-2.07985
2677.1,-4.05016
2678.3,-2.030216
2679.5,-0.66396
2680.8,-4.4619
2682,-5.06578
2683.2,-3.1661
2684.5,-4.07996
2685.7,-2.377138
2686.9,-4.730938
2688.2,-0.929274
2689.4,-4.347044
2690.6,-4.5541
2691.9,-4.3462
2693.1,-4.431512
2694.3,-1.267792
2695.5,-2.882398
2696.8,-1.021434
2698,-2.3945
2699.2,-3.578608
2700.4,-2.97574
2701.7,-3.61018
2702.9,0.641902
2704.1,-3.215788
2705.3,-6.31742
2706.6,-0.865732
2707.8,-0.729798
2709,0.587958
2710.2,-0.190094
2711.4,-3.0879014
2712.6,2.31506
2713.9,-1.563704
2715.1,-1.199938
2716.3,-0.688538
2717.5,0.49754
2718.7,0.422902
2719.9,2.72276
2721.2,0.130824
2722.4,-0.48718
2723.6,-0.369444
2724.8,-0.777598
2726,0
2727.2,1.21708
2728.4,-1.277494
2729.6,0.408574
2730.8,0.7214
2732,1.8198
2733.3,3.443064
2734.5,2.2561
2735.7,5.2879
2736.9,5.4266
2738.1,-1.0391
2739.3,2.36174
2740.5,2.880852
2741.7,-0.12902
2742.9,3.21802
2744.1,-0.96396
2745.3,0.24608
2746.5,2.89805
2747.7,2.1319372
2748.9,3.47685
2750.1,-0.620398
2751.3,0.792
2752.5,0.65294
2753.7,-1.13274
2754.9,3.74577
2756,-0.120006
2757.2,2.178848
2758.4,4.41316
2759.6,3.137618
2760.8,5.4177
2762,0.935434
2763.2,4.3156
2764.4,1.424254
2765.6,3.34194
2766.8,4.527202
2767.9,4.42928
2769.1,1.402734
2770.3,6.043
2771.5,2.6806062
2772.7,5.770274
2773.9,6.5153
2775.1,4.793534
2776.2,7.11544
2777.4,6.222788
2778.6,3.60763
2779.8,4.59806
2781,3.312894
2782.1,5.85162
2783.3,3.54408
2784.5,3.974056
2785.7,5.1563
2786.8,4.368012
2788,6.57436
2789.2,1.846178
2790.4,3.34168
2791.5,2.084276
2792.7,1.060106
2793.9,4.01138
2795.1,1.32612
2796.2,1.442
2797.4,1.2808
2798.6,1.313118
2799.7,0.67846
2800.9,3.72766
2802.1,0.94148
2803.2,1.236028
2804.4,2.784954
2805.6,-1.192324
2806.7,2.214058
2807.9,-1.975652
2809.1,1.303348
2810.2,1.185682
2811.4,-0.53151
2812.6,-2.54428
2813.7,-0.953164
2814.9,0.0286659999999999
2816,-1.10425
2817.2,-2.90822
2818.4,0
2819.5,-2.398352
2820.7,0.2239
2821.8,0.42392
2823,-0.77948
2824.1,2.426666
2825.3,2.49471
2826.4,1.1922
2827.6,-2.12991
2828.7,-2.489354
2829.9,-0.19879
2831,-2.0202
2832.2,-2.81574
2833.3,-2.253862
2834.5,-4.984996
2835.6,-2.4043
2836.8,-2.1722146
2837.9,-8.3742
2839.1,-0.501424
2840.2,-2.06448
2841.4,-4.006056
2842.5,-2.626
2843.7,-3.92388
2844.8,-1.3515
2845.9,-3.858902
2847.1,-7.50632
2848.2,-3.77154
2849.4,-3.81098
2850.5,-2.7372
2851.7,-6.2632
2852.8,-4.72634
2853.9,-4.77443
2855.1,-5.78416
2856.2,-3.35658
2857.3,-3.631466
2858.5,-2.065274
2859.6,-3.45182
2860.7,-3.3308
2861.9,-5.39376
2863,-2.625438
2864.1,-3.9946
2865.3,-5.17072
2866.4,-4.03734
2867.5,-6.76968
2868.7,-5.89645
2869.8,-4.43573
2870.9,-3.80784
2872,-0.4756166
2873.2,-6.02702
2874.3,-4.11277
2875.4,-0.9706
2876.5,-1.64152
2877.7,-1.18508
2878.8,-4.98116
2879.9,-1.881014
2881,1.771676
2882.2,-2.09954
2883.3,4.34922
2884.4,1.910836
2885.5,3.33438
2886.6,3.8531
2887.8,-1.35591
2888.9,2.565292
2890,7.131284
2891.1,6.59902
2892.2,9.47496
2893.3,8.35969
2894.4,11.40746
2895.6,10.33578
2896.7,10.62528
2897.8,13.42624
2898.9,13.98142
2900,16.166
2901.1,17.4038
2902.2,18.899
2903.3,20.554
2904.4,20.1614
2905.6,20.903
2906.7,22.0958
2907.8,26.729
2908.9,28.924
2910,32.7044
2911.1,32.729
2912.2,38.137
2913.3,39.3656
2914.4,41.982
2915.5,42.496
2916.6,44.521
2917.7,46.6428
2918.8,46.7954
2919.9,51.386
2921,51.9746
2922.1,54.613
2923.2,58.4554
2924.3,57.4976
2925.4,67.5444
2926.5,67.8526
2927.6,68.6536
2928.7,70.6512
2929.8,71.3266
2930.8,70.7286
2931.9,73.5536
2933,78.3384
2934.1,78.6178
2935.2,80.7228
2936.3,85.43
2937.4,86.2168
2938.5,86.8664
2939.6,86.3114
2940.6,89.2966
2941.7,91.0994
2942.8,89.5078
2943.9,88.9042
2945,91.97
2946.1,87.3358
2947.2,90.4634
2948.2,90.6286
2949.3,86.0182
2950.4,85.5632
2951.5,82.7662
2952.6,82.3886
2953.6,77.0128
2954.7,78.5972
2955.8,76.3008
2956.9,75.9064
2957.9,71.2914
2959,63.4754
2960.1,65.1916
2961.2,57.965
2962.2,56.7092
2963.3,54.5392
2964.4,52.5942
2965.5,49.9386
2966.5,44.7688
2967.6,42.0264
2968.7,35.6998
2969.7,33.5442
2970.8,33.5052
2971.9,31.2556
2973,33.3424
2974,26.8526
2975.1,28.4466
2976.2,29.677
2977.2,26.205
2978.3,25.2134
2979.3,21.5516
2980.4,23.549
2981.5,22.4888
2982.5,21.7312
2983.6,21.3664
2984.7,19.03886
2985.7,20.8258
2986.8,18.59
2987.8,18.4427
2988.9,17.2578
2989.9,20.15
2991,19.8432
2992.1,22.2396
2993.1,18.8113
2994.2,15.86874
2995.2,19.0366
2996.3,19.2
2997.3,21.8144
2998.4,22.2552
2999.4,23.3566
3000.5,24.9486
3001.5,22.8886
3002.6,23.1676
3003.6,23.6274
3004.7,23.3338
3005.7,25.0114
3006.8,19.3144
3007.8,27.7526
3008.9,24.8214
3009.9,24.2628
3011,28.3298
3012,28.1232
3013,29.197
3014.1,25.0684
3015.1,30.0892
3016.2,33.283
3017.2,32.154
3018.2,30.6196
3019.3,30.277
3020.3,36.1644
3021.4,34.421
3022.4,32.9744
3023.4,38.0764
3024.5,40.1992
3025.5,37.8782
3026.5,38.412
3027.6,39.8144
3028.6,43.5322
3029.6,44.2486
3030.7,43.0352
3031.7,43.6972
3032.7,45.5778
3033.8,43.7906
3034.8,45.1756
3035.8,50.351
3036.9,54.912
3037.9,53.6572
3038.9,53.1522
3039.9,51.6982
3041,56.7642
3042,55.331
3043,56.4014
3044,58.8094
3045.1,57.15
3046.1,59.1612
3047.1,61.0824
3048.1,62.687
3049.2,66.5968
3050.2,67.0626
3051.2,68.9532
3052.2,65.4446
3053.2,70.0166
3054.3,70.2038
3055.3,74.6906
3056.3,74.8886
3057.3,74.8706
3058.3,78.1186
3059.3,74.773
3060.3,81.6686
3061.4,81.2542
3062.4,83.7782
3063.4,87.0504
3064.4,85.6032
3065.4,87.5542
3066.4,85.752
3067.4,87.4438
3068.4,89.0022
3069.5,92.33
3070.5,97.0488
3071.5,94.3714
3072.5,97.4004
3073.5,94.588
3074.5,96.9844
3075.5,102.31
3076.5,104.0334
3077.5,106.1408
3078.5,108.452
3079.5,110.11
3080.5,108.194
3081.5,114.84
3082.5,112.092
3083.5,116.592
3084.5,120.76
3085.5,118.288
3086.5,122.702
3087.5,123.018
3088.5,123.638
3089.5,127.31
3090.5,125.522
3091.5,128.096
3092.5,130.442
3093.5,130.866
3094.5,135.462
3095.5,138.568
3096.4,141.958
3097.4,142.904
3098.4,145.524
3099.4,145.166
3100.4,147.102
3101.4,146
3102.4,149.858
3103.4,145.002
3104.4,151.366
3105.3,154.412
3106.3,160.108
3107.3,162.294
3108.3,160.414
3109.3,161.874
3110.3,166.816
3111.3,167.63
3112.2,170.316
3113.2,175.432
3114.2,172.712
3115.2,178.424
3116.2,176.986
3117.1,178.48
3118.1,180.32
3119.1,183.3
3120.1,187.856
3121,195.454
3122,188.764
3123,191.628
3124,195.694
3124.9,192.426
3125.9,199.8
3126.9,202.36
3127.9,205.85
3128.8,206.42
3129.8,210.134
3130.8,209.196
3131.7,208.378
3132.7,216.214
3133.7,213.86
3134.7,215.638
3135.6,217.74
3136.6,219.428
3137.6,220.094
3138.5,222.37
3139.5,227.914
3140.4,232.966
3141.4,228.75
3142.4,230.648
3143.3,231.266
3144.3,233.384
3145.3,234.128
3146.2,243.158
3147.2,240.848
3148.1,237.32
3149.1,240.694
3150.1,242.876
3151,245.948
3152,246.822
3152.9,249.496
3153.9,249.066
3154.8,250.732
3155.8,247.492
3156.7,249.134
3157.7,254.548
3158.6,252.992
3159.6,254.534
3160.6,259.276
3161.5,262.694
3162.5,256.838
3163.4,260.05
3164.4,259.078
3165.3,259.924
3166.2,267.288
3167.2,261.954
3168.1,263.994
3169.1,260.136
3170,267.85
3171,266.304
3171.9,260.792
3172.9,265.462
3173.8,268.988
3174.7,266.394
3175.7,269.894
3176.6,263.92
3177.6,263.984
3178.5,265.936
3179.5,265.744
3180.4,266.702
3181.3,270.886
3182.3,270.248
3183.2,270.86
3184.1,272.9
3185.1,271.862
3186,273.144
3186.9,277.706
3187.9,275.246
3188.8,272.244
3189.7,270.988
3190.7,275.016
3191.6,273.282
3192.5,270.664
3193.5,273.568
3194.4,274.596
3195.3,274.328
3196.3,270.496
3197.2,269.052
3198.1,270.06
3199,267.198
3200,265.308
3200.9,263.958
3201.8,269.572
3202.7,269.64
3203.7,270.702
3204.6,264.012
3205.5,264.148
3206.4,259.39
3207.3,262.16
3208.3,258.704
3209.2,256.064
3210.1,251.812
3211,252.056
3211.9,249.33
3212.9,252.678
3213.8,244.362
3214.7,244.598
3215.6,243.948
3216.5,245.218
3217.4,241.184
3218.4,240.012
3219.3,237.74
3220.2,233.678
3221.1,229.254
3222,229.972
3222.9,229.514
3223.8,221.738
3224.7,221.202
3225.6,221.312
3226.6,218.444
3227.5,211.426
3228.4,207.982
3229.3,209.378
3230.2,206.668
3231.1,200.334
3232,190.08
3232.9,189.018
3233.8,189.412
3234.7,185.138
3235.6,182.026
3236.5,181.05
3237.4,176.222
3238.3,170.676
3239.2,165.886
3240.1,161.738
3241,159.842
3241.9,147.204
3242.8,151.7
3243.7,144.3
3244.6,141.054
3245.5,135.884
3246.4,126.264
3247.3,114.526
3248.2,108.806
3249.1,101.5166
3250,89.4526
3250.9,79.339
3251.8,69.4552
3252.7,61.306
3253.5,45.3604
3254.4,29.2584
3255.3,15.2888
3256.2,-10.57686
